# OpenSignals Text File Format. Version 1
# {"00:07:80:0F:31:9C": {"position": 0, "device": "biosignalsplux", "device name": "00:07:80:0F:31:9C", "device connection": "BTH00:07:80:0F:31:9C", "sampling rate": 1000, "resolution": [16, 16], "firmware version": 775, "comments": "", "keywords": "", "mode": 0, "sync interval": 2, "date": "2026-6-11", "time": "14:59:21.146", "channels": [1, 2], "sensor": ["EDA", "ECG"], "label": ["CH1", "CH2"], "column": ["nSeq", "DI", "CH1", "CH2"], "special": [{"SpO2": [80, 40, 5, 4, 3, 3]}, {"SpO2": [80, 40, 5, 4, 3, 3]}, {"SpO2": [80, 40, 5, 4, 3, 3]}, {"SpO2": [80, 40, 5, 4, 3, 3]}, {"SpO2": [80, 40, 5, 4, 3, 3]}, {"SpO2": [80, 40, 5, 4, 3, 3]}, {"SpO2": [80, 40, 5, 4, 3, 3]}, {"SpO2": [80, 40, 5, 4, 3, 3]}], "digital IO": [0, 1], "sleeve color": ["red", "dark_blue"], "convertedValues": 0}}
# EndOfHeader
0	0	65535	32866	
1	0	65535	32840	
2	0	65535	32679	
3	0	65535	32512	
4	0	65535	32600	
5	0	65535	32668	
6	0	65535	32752	
7	0	65535	32714	
8	0	65535	32647	
9	0	65535	32668	
10	0	65535	32818	
11	0	65535	32952	
12	0	65535	32789	
13	0	65535	32685	
14	0	65535	32704	
15	0	65535	32872	
16	0	65535	32946	
17	0	65535	32852	
18	0	65535	32809	
19	0	65535	32874	
20	0	65535	33004	
21	0	65535	32902	
22	0	65535	32676	
23	0	65535	32668	
24	0	65535	32684	
25	0	65535	32724	
26	0	65535	32775	
27	0	65535	32680	
28	0	65535	32551	
29	0	65535	32574	
30	0	65535	32706	
31	0	65535	32924	
32	0	65535	32880	
33	0	65535	32774	
34	0	65535	32752	
35	0	65535	32846	
36	0	65535	32983	
37	0	65535	33006	
38	0	65535	32882	
39	0	65535	32806	
40	0	65535	32745	
41	0	65535	32860	
42	0	65535	32668	
43	0	65535	32617	
44	0	65535	32732	
45	0	65535	32766	
46	0	65535	32600	
47	0	65535	32506	
48	0	65535	32673	
49	0	65535	32685	
50	0	65535	32652	
51	0	65535	32684	
52	0	65535	32852	
53	0	65535	32712	
54	0	65535	32644	
55	0	65535	32785	
56	0	65535	32820	
57	0	65535	32720	
58	0	65535	32846	
59	0	65535	32926	
60	0	65535	32789	
61	0	65535	32654	
62	0	65535	32564	
63	0	65535	32596	
64	0	65535	32660	
65	0	65535	32574	
66	0	65535	32513	
67	0	65535	32524	
68	0	65535	32604	
69	0	65535	32668	
70	0	65535	32596	
71	0	65535	32608	
72	0	65535	32769	
73	0	65535	32882	
74	0	65535	32844	
75	0	65535	32713	
76	0	65535	32668	
77	0	65535	32786	
78	0	65535	32857	
79	0	65535	32740	
80	0	65535	32662	
81	0	65535	32597	
82	0	65535	32675	
83	0	65535	32656	
84	0	65535	32506	
85	0	65535	32488	
86	0	65535	32568	
87	0	65535	32606	
88	0	65535	32589	
89	0	65535	32421	
90	0	65535	32430	
91	0	65535	32652	
92	0	65535	32760	
93	0	65535	32730	
94	0	65535	32744	
95	0	65535	32812	
96	0	65535	32833	
97	0	65535	32908	
98	0	65535	32865	
99	0	65535	32775	
100	0	65535	32744	
101	0	65535	32684	
102	0	65535	32756	
103	0	65535	32808	
104	0	65535	32620	
105	0	65535	32545	
106	0	65535	32588	
107	0	65535	32580	
108	0	65535	32450	
109	0	65535	32426	
110	0	65535	32480	
111	0	65535	32628	
112	0	65535	32621	
113	0	65535	32486	
114	0	65535	32401	
115	0	65535	32380	
116	0	65535	32439	
117	0	65535	32516	
118	0	65535	32436	
119	0	65535	32408	
120	0	65535	32519	
121	0	65535	32545	
122	0	65535	32464	
123	0	65535	32352	
124	0	65535	32260	
125	0	65535	32212	
126	0	65535	32170	
127	0	65535	32156	
128	0	65535	32178	
129	0	65535	32184	
130	0	65535	32180	
131	0	65535	32234	
132	0	65535	32254	
133	0	65535	32310	
134	0	65535	32452	
135	0	65535	32544	
136	0	65535	32442	
137	0	65535	32436	
138	0	65535	32333	
139	0	65535	32263	
140	0	65535	32128	
141	0	65535	32007	
142	0	65535	31916	
143	0	65535	31912	
144	0	65535	32031	
145	0	65535	32097	
146	0	65535	32148	
147	0	65535	32108	
148	0	65535	32036	
149	0	65535	32064	
150	0	65535	32076	
151	0	65535	32202	
152	0	65535	32258	
153	0	65535	32296	
154	0	65535	32238	
155	0	65535	32124	
156	0	65535	32077	
157	0	65535	31984	
158	0	65535	31980	
159	0	65535	32058	
160	0	65535	32044	
161	0	65535	32007	
162	0	65535	31952	
163	0	65535	31884	
164	0	65535	31895	
165	0	65535	31928	
166	0	65535	32007	
167	0	65535	32113	
168	0	65535	32117	
169	0	65535	32050	
170	0	65535	32036	
171	0	65535	32030	
172	0	65535	31976	
173	0	65535	32094	
174	0	65535	32192	
175	0	65535	32237	
176	0	65535	32254	
177	0	65535	32333	
178	0	65535	32376	
179	0	65535	32326	
180	0	65535	32334	
181	0	65535	32220	
182	0	65535	32228	
183	0	65535	32236	
184	0	65535	32313	
185	0	65535	32422	
186	0	65535	32419	
187	0	65535	32353	
188	0	65535	32338	
189	0	65535	32412	
190	0	65535	32528	
191	0	65535	32620	
192	0	65535	32796	
193	0	65535	32878	
194	0	65535	32903	
195	0	65535	32988	
196	0	65535	33026	
197	0	65535	33125	
198	0	65535	33224	
199	0	65535	33280	
200	0	65535	33249	
201	0	65535	33188	
202	0	65535	33222	
203	0	65535	33189	
204	0	65535	33153	
205	0	65535	33072	
206	0	65535	33002	
207	0	65535	32977	
208	0	65535	32933	
209	0	65535	32988	
210	0	65535	33031	
211	0	65535	33070	
212	0	65535	33022	
213	0	65535	33040	
214	0	65535	33020	
215	0	65535	32984	
216	0	65535	33030	
217	0	65535	33166	
218	0	65535	33192	
219	0	65535	33152	
220	0	65535	33076	
221	0	65535	33020	
222	0	65535	32972	
223	0	65535	32948	
224	0	65535	32988	
225	0	65535	33060	
226	0	65535	33076	
227	0	65535	33028	
228	0	65535	33022	
229	0	65535	33060	
230	0	65535	33128	
231	0	65535	33184	
232	0	65535	33200	
233	0	65535	33148	
234	0	65535	33112	
235	0	65535	33140	
236	0	65535	33188	
237	0	65535	33182	
238	0	65535	33240	
239	0	65535	33220	
240	0	65535	33140	
241	0	65535	33012	
242	0	65535	32918	
243	0	65535	32832	
244	0	65535	32850	
245	0	65535	33046	
246	0	65535	33112	
247	0	65535	32964	
248	0	65535	32941	
249	0	65535	33017	
250	0	65535	33119	
251	0	65535	33244	
252	0	65535	33332	
253	0	65535	33315	
254	0	65535	33216	
255	0	65535	33038	
256	0	65535	32938	
257	0	65535	32868	
258	0	65535	32900	
259	0	65535	32782	
260	0	65535	32556	
261	0	65535	32230	
262	0	65535	31825	
263	0	65535	31508	
264	0	65535	31209	
265	0	65535	30928	
266	0	65535	30684	
267	0	65535	30310	
268	0	65535	29935	
269	0	65535	29580	
270	0	65535	29428	
271	0	65535	29289	
272	0	65535	29166	
273	0	65535	29029	
274	0	65535	28946	
275	0	65535	28842	
276	0	65535	28612	
277	0	65535	28286	
278	0	65535	27944	
279	0	65535	27654	
280	0	65535	27393	
281	0	65535	27132	
282	0	65535	26948	
283	0	65535	27060	
284	0	65535	27492	
285	0	65535	28254	
286	0	65535	29130	
287	0	65535	30208	
288	0	65535	31324	
289	0	65535	32433	
290	0	65535	33517	
291	0	65535	34566	
292	0	65535	35441	
293	0	65535	36212	
294	0	65535	36871	
295	0	65535	37205	
296	0	65535	37468	
297	0	65535	37716	
298	0	65535	38042	
299	0	65535	38265	
300	0	65535	38304	
301	0	65535	38268	
302	0	65535	38192	
303	0	65535	38148	
304	0	65535	38161	
305	0	65535	38180	
306	0	65535	38151	
307	0	65535	38046	
308	0	65535	37736	
309	0	65535	37452	
310	0	65535	37209	
311	0	65535	37022	
312	0	65535	36836	
313	0	65535	36634	
314	0	65535	36308	
315	0	65535	35958	
316	0	65535	35524	
317	0	65535	35162	
318	0	65535	34866	
319	0	65535	34654	
320	0	65535	34311	
321	0	65535	33907	
322	0	65535	33524	
323	0	65535	33273	
324	0	65535	33136	
325	0	65535	33154	
326	0	65535	33172	
327	0	65535	33060	
328	0	65535	32823	
329	0	65535	32727	
330	0	65535	32664	
331	0	65535	32696	
332	0	65535	32868	
333	0	65535	32948	
334	0	65535	32868	
335	0	65535	32733	
336	0	65535	32664	
337	0	65535	32630	
338	0	65535	32709	
339	0	65535	32775	
340	0	65535	32734	
341	0	65535	32532	
342	0	65535	32414	
343	0	65535	32315	
344	0	65535	32310	
345	0	65535	32418	
346	0	65535	32442	
347	0	65535	32388	
348	0	65535	32309	
349	0	65535	32285	
350	0	65535	32385	
351	0	65535	32552	
352	0	65535	32484	
353	0	65535	32398	
354	0	65535	32400	
355	0	65535	32625	
356	0	65535	32660	
357	0	65535	32660	
358	0	65535	32600	
359	0	65535	32556	
360	0	65535	32466	
361	0	65535	32376	
362	0	65535	32295	
363	0	65535	32285	
364	0	65535	32208	
365	0	65535	32224	
366	0	65535	32236	
367	0	65535	32240	
368	0	65535	32353	
369	0	65535	32404	
370	0	65535	32418	
371	0	65535	32379	
372	0	65535	32388	
373	0	65535	32430	
374	0	65535	32366	
375	0	65535	32309	
376	0	65535	32334	
377	0	65535	32365	
378	0	65535	32408	
379	0	65535	32324	
380	0	65535	32281	
381	0	65535	32300	
382	0	65535	32263	
383	0	65535	32173	
384	0	65535	32060	
385	0	65535	31943	
386	0	65535	32007	
387	0	65535	32124	
388	0	65535	32198	
389	0	65535	32175	
390	0	65535	32212	
391	0	65535	32216	
392	0	65535	32204	
393	0	65535	32140	
394	0	65535	32168	
395	0	65535	32209	
396	0	65535	32196	
397	0	65535	32148	
398	0	65535	32187	
399	0	65535	32152	
400	0	65535	32092	
401	0	65535	31976	
402	0	65535	31934	
403	0	65535	32062	
404	0	65535	32188	
405	0	65535	32152	
406	0	65535	32122	
407	0	65535	32007	
408	0	65535	31932	
409	0	65535	31988	
410	0	65535	32039	
411	0	65535	32160	
412	0	65535	32104	
413	0	65535	32140	
414	0	65535	32083	
415	0	65535	32042	
416	0	65535	32078	
417	0	65535	32260	
418	0	65535	32263	
419	0	65535	32117	
420	0	65535	31944	
421	0	65535	31878	
422	0	65535	31850	
423	0	65535	31893	
424	0	65535	31942	
425	0	65535	32069	
426	0	65535	32073	
427	0	65535	31929	
428	0	65535	31864	
429	0	65535	31846	
430	0	65535	31907	
431	0	65535	32088	
432	0	65535	32112	
433	0	65535	32106	
434	0	65535	32060	
435	0	65535	32023	
436	0	65535	31953	
437	0	65535	31879	
438	0	65535	31828	
439	0	65535	31828	
440	0	65535	31716	
441	0	65535	31608	
442	0	65535	31624	
443	0	65535	31678	
444	0	65535	31610	
445	0	65535	31545	
446	0	65535	31552	
447	0	65535	31504	
448	0	65535	31632	
449	0	65535	31732	
450	0	65535	31734	
451	0	65535	31656	
452	0	65535	31636	
453	0	65535	31602	
454	0	65535	31638	
455	0	65535	31612	
456	0	65535	31590	
457	0	65535	31559	
458	0	65535	31596	
459	0	65535	31505	
460	0	65535	31380	
461	0	65535	31404	
462	0	65535	31524	
463	0	65535	31437	
464	0	65535	31268	
465	0	65535	31156	
466	0	65535	31140	
467	0	65535	31120	
468	0	65535	31069	
469	0	65535	31012	
470	0	65535	31032	
471	0	65535	31125	
472	0	65535	31209	
473	0	65535	31296	
474	0	65535	31209	
475	0	65535	31074	
476	0	65535	30948	
477	0	65535	30980	
478	0	65535	31024	
479	0	65535	31008	
480	0	65535	30900	
481	0	65535	30804	
482	0	65535	30756	
483	0	65535	30816	
484	0	65535	30836	
485	0	65535	30768	
486	0	65535	30640	
487	0	65535	30464	
488	0	65535	30412	
489	0	65535	30392	
490	0	65535	30428	
491	0	65535	30425	
492	0	65535	30486	
493	0	65535	30488	
494	0	65535	30480	
495	0	65535	30438	
496	0	65535	30399	
497	0	65535	30390	
498	0	65535	30334	
499	0	65535	30252	
500	0	65535	30126	
501	0	65535	30105	
502	0	65535	30084	
503	0	65535	30037	
504	0	65535	29992	
505	0	65535	29975	
506	0	65535	29896	
507	0	65535	29880	
508	0	65535	29838	
509	0	65535	29876	
510	0	65535	29912	
511	0	65535	29900	
512	0	65535	29880	
513	0	65535	29799	
514	0	65535	29778	
515	0	65535	29794	
516	0	65535	29912	
517	0	65535	30040	
518	0	65535	30076	
519	0	65535	30024	
520	0	65535	29916	
521	0	65535	29836	
522	0	65535	29765	
523	0	65535	29794	
524	0	65535	29780	
525	0	65535	29852	
526	0	65535	29873	
527	0	65535	29902	
528	0	65535	29973	
529	0	65535	30068	
530	0	65535	30084	
531	0	65535	30128	
532	0	65535	30204	
533	0	65535	30189	
534	0	65535	30288	
535	0	65535	30368	
536	0	65535	30424	
537	0	65535	30436	
538	0	65535	30396	
539	0	65535	30428	
540	0	65535	30520	
541	0	65535	30588	
542	0	65535	30676	
543	0	65535	30700	
544	0	65535	30710	
545	0	65535	30720	
546	0	65535	30801	
547	0	65535	30839	
548	0	65535	30866	
549	0	65535	30959	
550	0	65535	31164	
551	0	65535	31373	
552	0	65535	31660	
553	0	65535	31870	
554	0	65535	31983	
555	0	65535	32024	
556	0	65535	32032	
557	0	65535	32215	
558	0	65535	32342	
559	0	65535	32423	
560	0	65535	32534	
561	0	65535	32632	
562	0	65535	32687	
563	0	65535	32692	
564	0	65535	32698	
565	0	65535	32808	
566	0	65535	32948	
567	0	65535	33094	
568	0	65535	33232	
569	0	65535	33406	
570	0	65535	33580	
571	0	65535	33651	
572	0	65535	33685	
573	0	65535	33732	
574	0	65535	33760	
575	0	65535	33836	
576	0	65535	34046	
577	0	65535	34190	
578	0	65535	34276	
579	0	65535	34265	
580	0	65535	34288	
581	0	65535	34330	
582	0	65535	34301	
583	0	65535	34300	
584	0	65535	34360	
585	0	65535	34380	
586	0	65535	34520	
587	0	65535	34580	
588	0	65535	34543	
589	0	65535	34416	
590	0	65535	34468	
591	0	65535	34560	
592	0	65535	34612	
593	0	65535	34678	
594	0	65535	34775	
595	0	65535	34806	
596	0	65535	34900	
597	0	65535	34887	
598	0	65535	34815	
599	0	65535	34760	
600	0	65535	34662	
601	0	65535	34634	
602	0	65535	34608	
603	0	65535	34585	
604	0	65535	34567	
605	0	65535	34567	
606	0	65535	34581	
607	0	65535	34592	
608	0	65535	34645	
609	0	65535	34708	
610	0	65535	34764	
611	0	65535	34813	
612	0	65535	34789	
613	0	65535	34864	
614	0	65535	34860	
615	0	65535	34790	
616	0	65535	34740	
617	0	65535	34788	
618	0	65535	34823	
619	0	65535	34881	
620	0	65535	34932	
621	0	65535	34848	
622	0	65535	34720	
623	0	65535	34660	
624	0	65535	34668	
625	0	65535	34604	
626	0	65535	34548	
627	0	65535	34526	
628	0	65535	34520	
629	0	65535	34628	
630	0	65535	34713	
631	0	65535	34720	
632	0	65535	34672	
633	0	65535	34604	
634	0	65535	34692	
635	0	65535	34742	
636	0	65535	34814	
637	0	65535	34778	
638	0	65535	34776	
639	0	65535	34748	
640	0	65535	34604	
641	0	65535	34584	
642	0	65535	34468	
643	0	65535	34409	
644	0	65535	34324	
645	0	65535	34280	
646	0	65535	34324	
647	0	65535	34458	
648	0	65535	34476	
649	0	65535	34382	
650	0	65535	34374	
651	0	65535	34330	
652	0	65535	34325	
653	0	65535	34340	
654	0	65535	34408	
655	0	65535	34426	
656	0	65535	34397	
657	0	65535	34398	
658	0	65535	34455	
659	0	65535	34400	
660	0	65535	34284	
661	0	65535	34207	
662	0	65535	34190	
663	0	65535	34128	
664	0	65535	34094	
665	0	65535	34116	
666	0	65535	34164	
667	0	65535	34156	
668	0	65535	34048	
669	0	65535	33975	
670	0	65535	33952	
671	0	65535	33971	
672	0	65535	34004	
673	0	65535	34028	
674	0	65535	34104	
675	0	65535	34142	
676	0	65535	34137	
677	0	65535	34068	
678	0	65535	33972	
679	0	65535	33892	
680	0	65535	33826	
681	0	65535	33764	
682	0	65535	33768	
683	0	65535	33841	
684	0	65535	33762	
685	0	65535	33713	
686	0	65535	33695	
687	0	65535	33696	
688	0	65535	33721	
689	0	65535	33615	
690	0	65535	33661	
691	0	65535	33860	
692	0	65535	33812	
693	0	65535	33721	
694	0	65535	33726	
695	0	65535	33726	
696	0	65535	33752	
697	0	65535	33788	
698	0	65535	33884	
699	0	65535	33785	
700	0	65535	33556	
701	0	65535	33510	
702	0	65535	33632	
703	0	65535	33753	
704	0	65535	33756	
705	0	65535	33700	
706	0	65535	33584	
707	0	65535	33530	
708	0	65535	33489	
709	0	65535	33532	
710	0	65535	33621	
711	0	65535	33584	
712	0	65535	33540	
713	0	65535	33489	
714	0	65535	33453	
715	0	65535	33588	
716	0	65535	33706	
717	0	65535	33745	
718	0	65535	33748	
719	0	65535	33740	
720	0	65535	33680	
721	0	65535	33618	
722	0	65535	33596	
723	0	65535	33482	
724	0	65535	33409	
725	0	65535	33444	
726	0	65535	33520	
727	0	65535	33477	
728	0	65535	33398	
729	0	65535	33340	
730	0	65535	33322	
731	0	65535	33372	
732	0	65535	33301	
733	0	65535	33305	
734	0	65535	33453	
735	0	65535	33543	
736	0	65535	33632	
737	0	65535	33588	
738	0	65535	33430	
739	0	65535	33367	
740	0	65535	33332	
741	0	65535	33309	
742	0	65535	33310	
743	0	65535	33287	
744	0	65535	33336	
745	0	65535	33356	
746	0	65535	33300	
747	0	65535	33238	
748	0	65535	33157	
749	0	65535	33263	
750	0	65535	33268	
751	0	65535	33270	
752	0	65535	33252	
753	0	65535	33224	
754	0	65535	33208	
755	0	65535	33191	
756	0	65535	33192	
757	0	65535	33236	
758	0	65535	33281	
759	0	65535	33344	
760	0	65535	33422	
761	0	65535	33380	
762	0	65535	33302	
763	0	65535	33205	
764	0	65535	33189	
765	0	65535	33228	
766	0	65535	33237	
767	0	65535	33225	
768	0	65535	33197	
769	0	65535	33248	
770	0	65535	33236	
771	0	65535	33172	
772	0	65535	33166	
773	0	65535	33152	
774	0	65535	33135	
775	0	65535	33136	
776	0	65535	33132	
777	0	65535	33162	
778	0	65535	33300	
779	0	65535	33328	
780	0	65535	33305	
781	0	65535	33317	
782	0	65535	33274	
783	0	65535	33224	
784	0	65535	33173	
785	0	65535	33074	
786	0	65535	33031	
787	0	65535	33054	
788	0	65535	33094	
789	0	65535	33078	
790	0	65535	33110	
791	0	65535	33141	
792	0	65535	33169	
793	0	65535	33177	
794	0	65535	33180	
795	0	65535	33188	
796	0	65535	33159	
797	0	65535	33160	
798	0	65535	33200	
799	0	65535	33126	
800	0	65535	33092	
801	0	65535	33073	
802	0	65535	33044	
803	0	65535	33015	
804	0	65535	33015	
805	0	65535	33095	
806	0	65535	33132	
807	0	65535	33112	
808	0	65535	33142	
809	0	65535	33176	
810	0	65535	33230	
811	0	65535	33226	
812	0	65535	33239	
813	0	65535	33216	
814	0	65535	33124	
815	0	65535	33055	
816	0	65535	33064	
817	0	65535	33098	
818	0	65535	33133	
819	0	65535	33084	
820	0	65535	32990	
821	0	65535	32916	
822	0	65535	32911	
823	0	65535	32941	
824	0	65535	32991	
825	0	65535	33012	
826	0	65535	32967	
827	0	65535	32982	
828	0	65535	33020	
829	0	65535	33041	
830	0	65535	33093	
831	0	65535	33048	
832	0	65535	33056	
833	0	65535	33081	
834	0	65535	33072	
835	0	65535	33016	
836	0	65535	32990	
837	0	65535	32986	
838	0	65535	33020	
839	0	65535	32994	
840	0	65535	32936	
841	0	65535	32804	
842	0	65535	32825	
843	0	65535	32943	
844	0	65535	33024	
845	0	65535	33052	
846	0	65535	33047	
847	0	65535	32989	
848	0	65535	32922	
849	0	65535	32910	
850	0	65535	33026	
851	0	65535	33121	
852	0	65535	33124	
853	0	65535	33113	
854	0	65535	33073	
855	0	65535	33016	
856	0	65535	32943	
857	0	65535	32996	
858	0	65535	33051	
859	0	65535	32984	
860	0	65535	32894	
861	0	65535	32892	
862	0	65535	32896	
863	0	65535	32932	
864	0	65535	32980	
865	0	65535	32944	
866	0	65535	32898	
867	0	65535	32934	
868	0	65535	32976	
869	0	65535	32992	
870	0	65535	33056	
871	0	65535	33064	
872	0	65535	33012	
873	0	65535	32936	
874	0	65535	32861	
875	0	65535	32876	
876	0	65535	32889	
877	0	65535	32903	
878	0	65535	33014	
879	0	65535	33106	
880	0	65535	33096	
881	0	65535	33095	
882	0	65535	33008	
883	0	65535	32976	
884	0	65535	32968	
885	0	65535	32937	
886	0	65535	32900	
887	0	65535	32808	
888	0	65535	32849	
889	0	65535	32772	
890	0	65535	32824	
891	0	65535	32775	
892	0	65535	32806	
893	0	65535	32850	
894	0	65535	32921	
895	0	65535	32957	
896	0	65535	32950	
897	0	65535	33020	
898	0	65535	33048	
899	0	65535	33038	
900	0	65535	33031	
901	0	65535	32996	
902	0	65535	32918	
903	0	65535	32933	
904	0	65535	32924	
905	0	65535	32972	
906	0	65535	32992	
907	0	65535	32950	
908	0	65535	32893	
909	0	65535	32880	
910	0	65535	32935	
911	0	65535	32852	
912	0	65535	32823	
913	0	65535	32785	
914	0	65535	32734	
915	0	65535	32772	
916	0	65535	32791	
917	0	65535	32750	
918	0	65535	32784	
919	0	65535	32868	
920	0	65535	32858	
921	0	65535	32759	
922	0	65535	32706	
923	0	65535	32742	
924	0	65535	32833	
925	0	65535	32875	
926	0	65535	32932	
927	0	65535	32872	
928	0	65535	32836	
929	0	65535	32799	
930	0	65535	32865	
931	0	65535	32912	
932	0	65535	32892	
933	0	65535	32890	
934	0	65535	32992	
935	0	65535	33021	
936	0	65535	33028	
937	0	65535	33015	
938	0	65535	32909	
939	0	65535	32816	
940	0	65535	32775	
941	0	65535	32764	
942	0	65535	32748	
943	0	65535	32758	
944	0	65535	32789	
945	0	65535	32793	
946	0	65535	32753	
947	0	65535	32700	
948	0	65535	32672	
949	0	65535	32647	
950	0	65535	32680	
951	0	65535	32756	
952	0	65535	32850	
953	0	65535	32797	
954	0	65535	32823	
955	0	65535	32802	
956	0	65535	32797	
957	0	65535	32865	
958	0	65535	32860	
959	0	65535	32828	
960	0	65535	32792	
961	0	65535	32772	
962	0	65535	32764	
963	0	65535	32813	
964	0	65535	32788	
965	0	65535	32731	
966	0	65535	32646	
967	0	65535	32586	
968	0	65535	32514	
969	0	65535	32519	
970	0	65535	32564	
971	0	65535	32588	
972	0	65535	32622	
973	0	65535	32660	
974	0	65535	32716	
975	0	65535	32694	
976	0	65535	32799	
977	0	65535	32932	
978	0	65535	32987	
979	0	65535	32920	
980	0	65535	32847	
981	0	65535	32728	
982	0	65535	32628	
983	0	65535	32640	
984	0	65535	32685	
985	0	65535	32680	
986	0	65535	32603	
987	0	65535	32537	
988	0	65535	32418	
989	0	65535	32442	
990	0	65535	32542	
991	0	65535	32696	
992	0	65535	32805	
993	0	65535	32912	
994	0	65535	32876	
995	0	65535	32866	
996	0	65535	32780	
997	0	65535	32798	
998	0	65535	32775	
999	0	65535	32739	
1000	0	65535	32672	
1001	0	65535	32666	
1002	0	65535	32697	
1003	0	65535	32780	
1004	0	65535	32748	
1005	0	65535	32656	
1006	0	65535	32612	
1007	0	65535	32604	
1008	0	65535	32583	
1009	0	65535	32596	
1010	0	65535	32629	
1011	0	65535	32658	
1012	0	65535	32775	
1013	0	65535	32920	
1014	0	65535	32942	
1015	0	65535	32896	
1016	0	65535	32854	
1017	0	65535	32854	
1018	0	65535	32775	
1019	0	65535	32748	
1020	0	65535	32713	
1021	0	65535	32644	
1022	0	65535	32604	
1023	0	65535	32588	
1024	0	65535	32584	
1025	0	65535	32606	
1026	0	65535	32612	
1027	0	65535	32609	
1028	0	65535	32577	
1029	0	65535	32595	
1030	0	65535	32704	
1031	0	65535	32744	
1032	0	65535	32820	
1033	0	65535	32799	
1034	0	65535	32712	
1035	0	65535	32664	
1036	0	65535	32716	
1037	0	65535	32720	
1038	0	65535	32735	
1039	0	65535	32686	
1040	0	65535	32640	
1041	0	65535	32676	
1042	0	65535	32560	
1043	0	65535	32537	
1044	0	65535	32536	
1045	0	65535	32602	
1046	0	65535	32622	
1047	0	65535	32632	
1048	0	65535	32656	
1049	0	65535	32707	
1050	0	65535	32676	
1051	0	65535	32744	
1052	0	65535	32748	
1053	0	65535	32809	
1054	0	65535	32852	
1055	0	65535	32844	
1056	0	65535	32828	
1057	0	65535	32878	
1058	0	65535	32895	
1059	0	65535	32788	
1060	0	65535	32704	
1061	0	65535	32500	
1062	0	65535	32428	
1063	0	65535	32416	
1064	0	65535	32400	
1065	0	65535	32407	
1066	0	65535	32430	
1067	0	65535	32400	
1068	0	65535	32401	
1069	0	65535	32454	
1070	0	65535	32519	
1071	0	65535	32567	
1072	0	65535	32583	
1073	0	65535	32584	
1074	0	65535	32614	
1075	0	65535	32666	
1076	0	65535	32705	
1077	0	65535	32732	
1078	0	65535	32741	
1079	0	65535	32708	
1080	0	65535	32644	
1081	0	65535	32589	
1082	0	65535	32556	
1083	0	65535	32548	
1084	0	65535	32580	
1085	0	65535	32591	
1086	0	65535	32601	
1087	0	65535	32630	
1088	0	65535	32598	
1089	0	65535	32576	
1090	0	65535	32515	
1091	0	65535	32526	
1092	0	65535	32556	
1093	0	65535	32580	
1094	0	65535	32565	
1095	0	65535	32568	
1096	0	65535	32584	
1097	0	65535	32629	
1098	0	65535	32688	
1099	0	65535	32681	
1100	0	65535	32724	
1101	0	65535	32711	
1102	0	65535	32692	
1103	0	65535	32684	
1104	0	65535	32688	
1105	0	65535	32681	
1106	0	65535	32684	
1107	0	65535	32625	
1108	0	65535	32564	
1109	0	65535	32580	
1110	0	65535	32612	
1111	0	65535	32616	
1112	0	65535	32608	
1113	0	65535	32593	
1114	0	65535	32560	
1115	0	65535	32596	
1116	0	65535	32660	
1117	0	65535	32722	
1118	0	65535	32729	
1119	0	65535	32688	
1120	0	65535	32558	
1121	0	65535	32476	
1122	0	65535	32360	
1123	0	65535	32442	
1124	0	65535	32509	
1125	0	65535	32489	
1126	0	65535	32488	
1127	0	65535	32484	
1128	0	65535	32508	
1129	0	65535	32564	
1130	0	65535	32688	
1131	0	65535	32761	
1132	0	65535	32757	
1133	0	65535	32746	
1134	0	65535	32730	
1135	0	65535	32708	
1136	0	65535	32705	
1137	0	65535	32774	
1138	0	65535	32801	
1139	0	65535	32746	
1140	0	65535	32683	
1141	0	65535	32660	
1142	0	65535	32652	
1143	0	65535	32662	
1144	0	65535	32640	
1145	0	65535	32612	
1146	0	65535	32540	
1147	0	65535	32496	
1148	0	65535	32497	
1149	0	65535	32518	
1150	0	65535	32613	
1151	0	65535	32647	
1152	0	65535	32650	
1153	0	65535	32596	
1154	0	65535	32538	
1155	0	65535	32454	
1156	0	65535	32436	
1157	0	65535	32458	
1158	0	65535	32443	
1159	0	65535	32340	
1160	0	65535	32282	
1161	0	65535	32231	
1162	0	65535	32184	
1163	0	65535	32165	
1164	0	65535	32233	
1165	0	65535	32310	
1166	0	65535	32308	
1167	0	65535	32250	
1168	0	65535	32218	
1169	0	65535	32200	
1170	0	65535	32244	
1171	0	65535	32298	
1172	0	65535	32351	
1173	0	65535	32327	
1174	0	65535	32304	
1175	0	65535	32263	
1176	0	65535	32256	
1177	0	65535	32276	
1178	0	65535	32350	
1179	0	65535	32316	
1180	0	65535	32288	
1181	0	65535	32178	
1182	0	65535	32104	
1183	0	65535	32100	
1184	0	65535	32080	
1185	0	65535	32012	
1186	0	65535	31952	
1187	0	65535	31949	
1188	0	65535	31900	
1189	0	65535	31869	
1190	0	65535	31909	
1191	0	65535	32007	
1192	0	65535	32101	
1193	0	65535	32132	
1194	0	65535	32142	
1195	0	65535	32088	
1196	0	65535	32079	
1197	0	65535	32164	
1198	0	65535	32135	
1199	0	65535	32056	
1200	0	65535	31953	
1201	0	65535	31916	
1202	0	65535	31871	
1203	0	65535	31909	
1204	0	65535	31926	
1205	0	65535	31980	
1206	0	65535	31981	
1207	0	65535	31945	
1208	0	65535	31962	
1209	0	65535	32020	
1210	0	65535	32048	
1211	0	65535	32068	
1212	0	65535	32088	
1213	0	65535	31982	
1214	0	65535	31946	
1215	0	65535	31996	
1216	0	65535	31973	
1217	0	65535	31992	
1218	0	65535	32068	
1219	0	65535	32125	
1220	0	65535	32157	
1221	0	65535	32164	
1222	0	65535	32160	
1223	0	65535	32150	
1224	0	65535	32190	
1225	0	65535	32252	
1226	0	65535	32256	
1227	0	65535	32324	
1228	0	65535	32291	
1229	0	65535	32324	
1230	0	65535	32397	
1231	0	65535	32464	
1232	0	65535	32551	
1233	0	65535	32631	
1234	0	65535	32736	
1235	0	65535	32814	
1236	0	65535	32936	
1237	0	65535	32950	
1238	0	65535	32986	
1239	0	65535	32956	
1240	0	65535	32896	
1241	0	65535	32826	
1242	0	65535	32808	
1243	0	65535	32867	
1244	0	65535	32951	
1245	0	65535	33061	
1246	0	65535	33153	
1247	0	65535	33114	
1248	0	65535	33144	
1249	0	65535	33221	
1250	0	65535	33237	
1251	0	65535	33245	
1252	0	65535	33279	
1253	0	65535	33287	
1254	0	65535	33282	
1255	0	65535	33256	
1256	0	65535	33236	
1257	0	65535	33244	
1258	0	65535	33278	
1259	0	65535	33239	
1260	0	65535	33126	
1261	0	65535	33060	
1262	0	65535	33020	
1263	0	65535	32994	
1264	0	65535	32948	
1265	0	65535	33008	
1266	0	65535	32964	
1267	0	65535	32948	
1268	0	65535	32988	
1269	0	65535	32962	
1270	0	65535	32977	
1271	0	65535	33005	
1272	0	65535	33030	
1273	0	65535	32992	
1274	0	65535	33004	
1275	0	65535	33018	
1276	0	65535	33048	
1277	0	65535	33084	
1278	0	65535	33138	
1279	0	65535	33105	
1280	0	65535	33038	
1281	0	65535	32916	
1282	0	65535	32852	
1283	0	65535	32842	
1284	0	65535	32869	
1285	0	65535	32896	
1286	0	65535	32857	
1287	0	65535	32828	
1288	0	65535	32799	
1289	0	65535	32833	
1290	0	65535	32900	
1291	0	65535	33006	
1292	0	65535	33120	
1293	0	65535	33174	
1294	0	65535	33143	
1295	0	65535	33096	
1296	0	65535	33098	
1297	0	65535	33133	
1298	0	65535	33028	
1299	0	65535	32928	
1300	0	65535	32775	
1301	0	65535	32616	
1302	0	65535	32380	
1303	0	65535	32176	
1304	0	65535	31939	
1305	0	65535	31648	
1306	0	65535	31358	
1307	0	65535	31028	
1308	0	65535	30662	
1309	0	65535	30316	
1310	0	65535	30008	
1311	0	65535	29692	
1312	0	65535	29455	
1313	0	65535	29202	
1314	0	65535	29004	
1315	0	65535	28935	
1316	0	65535	28852	
1317	0	65535	28751	
1318	0	65535	28621	
1319	0	65535	28410	
1320	0	65535	28113	
1321	0	65535	27844	
1322	0	65535	27517	
1323	0	65535	27298	
1324	0	65535	27078	
1325	0	65535	26940	
1326	0	65535	27167	
1327	0	65535	27652	
1328	0	65535	28276	
1329	0	65535	29275	
1330	0	65535	30482	
1331	0	65535	31721	
1332	0	65535	32840	
1333	0	65535	33927	
1334	0	65535	34918	
1335	0	65535	35750	
1336	0	65535	36406	
1337	0	65535	37017	
1338	0	65535	37464	
1339	0	65535	37756	
1340	0	65535	38008	
1341	0	65535	38165	
1342	0	65535	38224	
1343	0	65535	38236	
1344	0	65535	38266	
1345	0	65535	38304	
1346	0	65535	38318	
1347	0	65535	38217	
1348	0	65535	38101	
1349	0	65535	37996	
1350	0	65535	37904	
1351	0	65535	37784	
1352	0	65535	37572	
1353	0	65535	37306	
1354	0	65535	37052	
1355	0	65535	36796	
1356	0	65535	36524	
1357	0	65535	36240	
1358	0	65535	35911	
1359	0	65535	35520	
1360	0	65535	35112	
1361	0	65535	34780	
1362	0	65535	34411	
1363	0	65535	34065	
1364	0	65535	33784	
1365	0	65535	33512	
1366	0	65535	33397	
1367	0	65535	33236	
1368	0	65535	33060	
1369	0	65535	32956	
1370	0	65535	32950	
1371	0	65535	32940	
1372	0	65535	32879	
1373	0	65535	32900	
1374	0	65535	32858	
1375	0	65535	32844	
1376	0	65535	32893	
1377	0	65535	32856	
1378	0	65535	32812	
1379	0	65535	32741	
1380	0	65535	32693	
1381	0	65535	32661	
1382	0	65535	32660	
1383	0	65535	32624	
1384	0	65535	32599	
1385	0	65535	32560	
1386	0	65535	32496	
1387	0	65535	32366	
1388	0	65535	32300	
1389	0	65535	32340	
1390	0	65535	32412	
1391	0	65535	32472	
1392	0	65535	32460	
1393	0	65535	32476	
1394	0	65535	32355	
1395	0	65535	32360	
1396	0	65535	32276	
1397	0	65535	32334	
1398	0	65535	32420	
1399	0	65535	32456	
1400	0	65535	32375	
1401	0	65535	32231	
1402	0	65535	32150	
1403	0	65535	32152	
1404	0	65535	32160	
1405	0	65535	32144	
1406	0	65535	32086	
1407	0	65535	32036	
1408	0	65535	32004	
1409	0	65535	32020	
1410	0	65535	32161	
1411	0	65535	32170	
1412	0	65535	32174	
1413	0	65535	32151	
1414	0	65535	32172	
1415	0	65535	32128	
1416	0	65535	32199	
1417	0	65535	32248	
1418	0	65535	32302	
1419	0	65535	32281	
1420	0	65535	32263	
1421	0	65535	32232	
1422	0	65535	32198	
1423	0	65535	32200	
1424	0	65535	32209	
1425	0	65535	32205	
1426	0	65535	32188	
1427	0	65535	32178	
1428	0	65535	32156	
1429	0	65535	32146	
1430	0	65535	32168	
1431	0	65535	32240	
1432	0	65535	32256	
1433	0	65535	32268	
1434	0	65535	32276	
1435	0	65535	32260	
1436	0	65535	32234	
1437	0	65535	32244	
1438	0	65535	32258	
1439	0	65535	32213	
1440	0	65535	32116	
1441	0	65535	31970	
1442	0	65535	31884	
1443	0	65535	31847	
1444	0	65535	31820	
1445	0	65535	31924	
1446	0	65535	31932	
1447	0	65535	31839	
1448	0	65535	31809	
1449	0	65535	31880	
1450	0	65535	32000	
1451	0	65535	32072	
1452	0	65535	32054	
1453	0	65535	32035	
1454	0	65535	32064	
1455	0	65535	32109	
1456	0	65535	32157	
1457	0	65535	32280	
1458	0	65535	32302	
1459	0	65535	32372	
1460	0	65535	32296	
1461	0	65535	32220	
1462	0	65535	32142	
1463	0	65535	32096	
1464	0	65535	32056	
1465	0	65535	32007	
1466	0	65535	31976	
1467	0	65535	31894	
1468	0	65535	31838	
1469	0	65535	31776	
1470	0	65535	31820	
1471	0	65535	31881	
1472	0	65535	31940	
1473	0	65535	31990	
1474	0	65535	32038	
1475	0	65535	32031	
1476	0	65535	31999	
1477	0	65535	32057	
1478	0	65535	32040	
1479	0	65535	32007	
1480	0	65535	31893	
1481	0	65535	31788	
1482	0	65535	31743	
1483	0	65535	31761	
1484	0	65535	31737	
1485	0	65535	31751	
1486	0	65535	31808	
1487	0	65535	31783	
1488	0	65535	31742	
1489	0	65535	31705	
1490	0	65535	31671	
1491	0	65535	31668	
1492	0	65535	31632	
1493	0	65535	31612	
1494	0	65535	31576	
1495	0	65535	31536	
1496	0	65535	31532	
1497	0	65535	31574	
1498	0	65535	31568	
1499	0	65535	31468	
1500	0	65535	31388	
1501	0	65535	31350	
1502	0	65535	31252	
1503	0	65535	31228	
1504	0	65535	31173	
1505	0	65535	31122	
1506	0	65535	31142	
1507	0	65535	31111	
1508	0	65535	31114	
1509	0	65535	31120	
1510	0	65535	31149	
1511	0	65535	31140	
1512	0	65535	31181	
1513	0	65535	31193	
1514	0	65535	31172	
1515	0	65535	31166	
1516	0	65535	31146	
1517	0	65535	31150	
1518	0	65535	31139	
1519	0	65535	31056	
1520	0	65535	30916	
1521	0	65535	30788	
1522	0	65535	30683	
1523	0	65535	30625	
1524	0	65535	30644	
1525	0	65535	30680	
1526	0	65535	30704	
1527	0	65535	30660	
1528	0	65535	30620	
1529	0	65535	30557	
1530	0	65535	30546	
1531	0	65535	30551	
1532	0	65535	30590	
1533	0	65535	30518	
1534	0	65535	30454	
1535	0	65535	30404	
1536	0	65535	30296	
1537	0	65535	30284	
1538	0	65535	30233	
1539	0	65535	30190	
1540	0	65535	30100	
1541	0	65535	30023	
1542	0	65535	29948	
1543	0	65535	29904	
1544	0	65535	29880	
1545	0	65535	29844	
1546	0	65535	29784	
1547	0	65535	29728	
1548	0	65535	29670	
1549	0	65535	29674	
1550	0	65535	29703	
1551	0	65535	29740	
1552	0	65535	29732	
1553	0	65535	29686	
1554	0	65535	29668	
1555	0	65535	29667	
1556	0	65535	29688	
1557	0	65535	29703	
1558	0	65535	29741	
1559	0	65535	29684	
1560	0	65535	29628	
1561	0	65535	29604	
1562	0	65535	29604	
1563	0	65535	29613	
1564	0	65535	29593	
1565	0	65535	29596	
1566	0	65535	29598	
1567	0	65535	29590	
1568	0	65535	29592	
1569	0	65535	29604	
1570	0	65535	29644	
1571	0	65535	29662	
1572	0	65535	29679	
1573	0	65535	29712	
1574	0	65535	29780	
1575	0	65535	29862	
1576	0	65535	29944	
1577	0	65535	30029	
1578	0	65535	30176	
1579	0	65535	30074	
1580	0	65535	30028	
1581	0	65535	30142	
1582	0	65535	30208	
1583	0	65535	30314	
1584	0	65535	30440	
1585	0	65535	30528	
1586	0	65535	30615	
1587	0	65535	30650	
1588	0	65535	30716	
1589	0	65535	30840	
1590	0	65535	30992	
1591	0	65535	31156	
1592	0	65535	31284	
1593	0	65535	31348	
1594	0	65535	31328	
1595	0	65535	31440	
1596	0	65535	31552	
1597	0	65535	31674	
1598	0	65535	31788	
1599	0	65535	31876	
1600	0	65535	31950	
1601	0	65535	32020	
1602	0	65535	32100	
1603	0	65535	32222	
1604	0	65535	32416	
1605	0	65535	32601	
1606	0	65535	32669	
1607	0	65535	32784	
1608	0	65535	32836	
1609	0	65535	32916	
1610	0	65535	32992	
1611	0	65535	33088	
1612	0	65535	33207	
1613	0	65535	33306	
1614	0	65535	33421	
1615	0	65535	33558	
1616	0	65535	33700	
1617	0	65535	33844	
1618	0	65535	33960	
1619	0	65535	34004	
1620	0	65535	34004	
1621	0	65535	33996	
1622	0	65535	34052	
1623	0	65535	34124	
1624	0	65535	34172	
1625	0	65535	34188	
1626	0	65535	34228	
1627	0	65535	34212	
1628	0	65535	34170	
1629	0	65535	34260	
1630	0	65535	34332	
1631	0	65535	34428	
1632	0	65535	34553	
1633	0	65535	34586	
1634	0	65535	34648	
1635	0	65535	34695	
1636	0	65535	34740	
1637	0	65535	34830	
1638	0	65535	34900	
1639	0	65535	34904	
1640	0	65535	34916	
1641	0	65535	34896	
1642	0	65535	34894	
1643	0	65535	34927	
1644	0	65535	34892	
1645	0	65535	34880	
1646	0	65535	34866	
1647	0	65535	34822	
1648	0	65535	34760	
1649	0	65535	34756	
1650	0	65535	34820	
1651	0	65535	34937	
1652	0	65535	34874	
1653	0	65535	34820	
1654	0	65535	34788	
1655	0	65535	34740	
1656	0	65535	34836	
1657	0	65535	34884	
1658	0	65535	34906	
1659	0	65535	34823	
1660	0	65535	34782	
1661	0	65535	34798	
1662	0	65535	34788	
1663	0	65535	34796	
1664	0	65535	34820	
1665	0	65535	34806	
1666	0	65535	34780	
1667	0	65535	34679	
1668	0	65535	34668	
1669	0	65535	34750	
1670	0	65535	34805	
1671	0	65535	34856	
1672	0	65535	34906	
1673	0	65535	34944	
1674	0	65535	34904	
1675	0	65535	34942	
1676	0	65535	34940	
1677	0	65535	34964	
1678	0	65535	34924	
1679	0	65535	34864	
1680	0	65535	34784	
1681	0	65535	34757	
1682	0	65535	34705	
1683	0	65535	34663	
1684	0	65535	34617	
1685	0	65535	34602	
1686	0	65535	34596	
1687	0	65535	34544	
1688	0	65535	34420	
1689	0	65535	34410	
1690	0	65535	34516	
1691	0	65535	34564	
1692	0	65535	34580	
1693	0	65535	34542	
1694	0	65535	34516	
1695	0	65535	34572	
1696	0	65535	34604	
1697	0	65535	34578	
1698	0	65535	34616	
1699	0	65535	34612	
1700	0	65535	34566	
1701	0	65535	34464	
1702	0	65535	34380	
1703	0	65535	34400	
1704	0	65535	34400	
1705	0	65535	34376	
1706	0	65535	34341	
1707	0	65535	34286	
1708	0	65535	34246	
1709	0	65535	34257	
1710	0	65535	34232	
1711	0	65535	34215	
1712	0	65535	34220	
1713	0	65535	34256	
1714	0	65535	34248	
1715	0	65535	34255	
1716	0	65535	34231	
1717	0	65535	34288	
1718	0	65535	34367	
1719	0	65535	34360	
1720	0	65535	34210	
1721	0	65535	34132	
1722	0	65535	34084	
1723	0	65535	34055	
1724	0	65535	34168	
1725	0	65535	34217	
1726	0	65535	34191	
1727	0	65535	34108	
1728	0	65535	34080	
1729	0	65535	34064	
1730	0	65535	34044	
1731	0	65535	34055	
1732	0	65535	34040	
1733	0	65535	34064	
1734	0	65535	34076	
1735	0	65535	34068	
1736	0	65535	34126	
1737	0	65535	34117	
1738	0	65535	34104	
1739	0	65535	34054	
1740	0	65535	33936	
1741	0	65535	33844	
1742	0	65535	33799	
1743	0	65535	33744	
1744	0	65535	33670	
1745	0	65535	33588	
1746	0	65535	33570	
1747	0	65535	33604	
1748	0	65535	33605	
1749	0	65535	33630	
1750	0	65535	33664	
1751	0	65535	33733	
1752	0	65535	33799	
1753	0	65535	33848	
1754	0	65535	33865	
1755	0	65535	33842	
1756	0	65535	33838	
1757	0	65535	33876	
1758	0	65535	33889	
1759	0	65535	33836	
1760	0	65535	33754	
1761	0	65535	33684	
1762	0	65535	33587	
1763	0	65535	33602	
1764	0	65535	33607	
1765	0	65535	33582	
1766	0	65535	33568	
1767	0	65535	33522	
1768	0	65535	33494	
1769	0	65535	33493	
1770	0	65535	33526	
1771	0	65535	33612	
1772	0	65535	33716	
1773	0	65535	33734	
1774	0	65535	33760	
1775	0	65535	33742	
1776	0	65535	33714	
1777	0	65535	33724	
1778	0	65535	33752	
1779	0	65535	33708	
1780	0	65535	33653	
1781	0	65535	33590	
1782	0	65535	33552	
1783	0	65535	33532	
1784	0	65535	33468	
1785	0	65535	33412	
1786	0	65535	33437	
1787	0	65535	33488	
1788	0	65535	33474	
1789	0	65535	33474	
1790	0	65535	33504	
1791	0	65535	33464	
1792	0	65535	33519	
1793	0	65535	33472	
1794	0	65535	33397	
1795	0	65535	33400	
1796	0	65535	33426	
1797	0	65535	33480	
1798	0	65535	33481	
1799	0	65535	33460	
1800	0	65535	33376	
1801	0	65535	33328	
1802	0	65535	33287	
1803	0	65535	33297	
1804	0	65535	33432	
1805	0	65535	33594	
1806	0	65535	33509	
1807	0	65535	33429	
1808	0	65535	33356	
1809	0	65535	33228	
1810	0	65535	33230	
1811	0	65535	33252	
1812	0	65535	33264	
1813	0	65535	33287	
1814	0	65535	33300	
1815	0	65535	33393	
1816	0	65535	33447	
1817	0	65535	33458	
1818	0	65535	33513	
1819	0	65535	33558	
1820	0	65535	33485	
1821	0	65535	33377	
1822	0	65535	33287	
1823	0	65535	33228	
1824	0	65535	33222	
1825	0	65535	33180	
1826	0	65535	33166	
1827	0	65535	33158	
1828	0	65535	33174	
1829	0	65535	33182	
1830	0	65535	33268	
1831	0	65535	33316	
1832	0	65535	33354	
1833	0	65535	33407	
1834	0	65535	33390	
1835	0	65535	33391	
1836	0	65535	33384	
1837	0	65535	33456	
1838	0	65535	33519	
1839	0	65535	33444	
1840	0	65535	33394	
1841	0	65535	33309	
1842	0	65535	33224	
1843	0	65535	33278	
1844	0	65535	33294	
1845	0	65535	33241	
1846	0	65535	33150	
1847	0	65535	33104	
1848	0	65535	33088	
1849	0	65535	33061	
1850	0	65535	33061	
1851	0	65535	33060	
1852	0	65535	33090	
1853	0	65535	33085	
1854	0	65535	33087	
1855	0	65535	33128	
1856	0	65535	33228	
1857	0	65535	33297	
1858	0	65535	33340	
1859	0	65535	33317	
1860	0	65535	33247	
1861	0	65535	33196	
1862	0	65535	33180	
1863	0	65535	33199	
1864	0	65535	33124	
1865	0	65535	33106	
1866	0	65535	33125	
1867	0	65535	33150	
1868	0	65535	33159	
1869	0	65535	33156	
1870	0	65535	33182	
1871	0	65535	33244	
1872	0	65535	33367	
1873	0	65535	33368	
1874	0	65535	33312	
1875	0	65535	33268	
1876	0	65535	33236	
1877	0	65535	33242	
1878	0	65535	33220	
1879	0	65535	33206	
1880	0	65535	33085	
1881	0	65535	33001	
1882	0	65535	32940	
1883	0	65535	32988	
1884	0	65535	33024	
1885	0	65535	33042	
1886	0	65535	33104	
1887	0	65535	33045	
1888	0	65535	33001	
1889	0	65535	32965	
1890	0	65535	32909	
1891	0	65535	33016	
1892	0	65535	33088	
1893	0	65535	33053	
1894	0	65535	33025	
1895	0	65535	33109	
1896	0	65535	33159	
1897	0	65535	33220	
1898	0	65535	33280	
1899	0	65535	33276	
1900	0	65535	33204	
1901	0	65535	33104	
1902	0	65535	33045	
1903	0	65535	33056	
1904	0	65535	32997	
1905	0	65535	32964	
1906	0	65535	32903	
1907	0	65535	32868	
1908	0	65535	32814	
1909	0	65535	32786	
1910	0	65535	32817	
1911	0	65535	32931	
1912	0	65535	33006	
1913	0	65535	32985	
1914	0	65535	33020	
1915	0	65535	33056	
1916	0	65535	33061	
1917	0	65535	33124	
1918	0	65535	33135	
1919	0	65535	33112	
1920	0	65535	33044	
1921	0	65535	32956	
1922	0	65535	32960	
1923	0	65535	32948	
1924	0	65535	32959	
1925	0	65535	32988	
1926	0	65535	33013	
1927	0	65535	32954	
1928	0	65535	32820	
1929	0	65535	32809	
1930	0	65535	32839	
1931	0	65535	32874	
1932	0	65535	32902	
1933	0	65535	32910	
1934	0	65535	32900	
1935	0	65535	32852	
1936	0	65535	32914	
1937	0	65535	32964	
1938	0	65535	33012	
1939	0	65535	32990	
1940	0	65535	32884	
1941	0	65535	32844	
1942	0	65535	32786	
1943	0	65535	32798	
1944	0	65535	32797	
1945	0	65535	32856	
1946	0	65535	32924	
1947	0	65535	32928	
1948	0	65535	32956	
1949	0	65535	32956	
1950	0	65535	32927	
1951	0	65535	32936	
1952	0	65535	32903	
1953	0	65535	32848	
1954	0	65535	32842	
1955	0	65535	32831	
1956	0	65535	32848	
1957	0	65535	32890	
1958	0	65535	32912	
1959	0	65535	32912	
1960	0	65535	32876	
1961	0	65535	32812	
1962	0	65535	32821	
1963	0	65535	32757	
1964	0	65535	32676	
1965	0	65535	32668	
1966	0	65535	32668	
1967	0	65535	32634	
1968	0	65535	32592	
1969	0	65535	32596	
1970	0	65535	32664	
1971	0	65535	32756	
1972	0	65535	32796	
1973	0	65535	32815	
1974	0	65535	32788	
1975	0	65535	32740	
1976	0	65535	32760	
1977	0	65535	32879	
1978	0	65535	32968	
1979	0	65535	32990	
1980	0	65535	32967	
1981	0	65535	32908	
1982	0	65535	32877	
1983	0	65535	32888	
1984	0	65535	32814	
1985	0	65535	32767	
1986	0	65535	32712	
1987	0	65535	32708	
1988	0	65535	32737	
1989	0	65535	32817	
1990	0	65535	32878	
1991	0	65535	32966	
1992	0	65535	32908	
1993	0	65535	32895	
1994	0	65535	32827	
1995	0	65535	32824	
1996	0	65535	32863	
1997	0	65535	32916	
1998	0	65535	32930	
1999	0	65535	32884	
2000	0	65535	32860	
2001	0	65535	32858	
2002	0	65535	32775	
2003	0	65535	32718	
2004	0	65535	32704	
2005	0	65535	32668	
2006	0	65535	32660	
2007	0	65535	32604	
2008	0	65535	32565	
2009	0	65535	32697	
2010	0	65535	32732	
2011	0	65535	32760	
2012	0	65535	32838	
2013	0	65535	32860	
2014	0	65535	32884	
2015	0	65535	32880	
2016	0	65535	32896	
2017	0	65535	32877	
2018	0	65535	32936	
2019	0	65535	32910	
2020	0	65535	32850	
2021	0	65535	32808	
2022	0	65535	32903	
2023	0	65535	32896	
2024	0	65535	32871	
2025	0	65535	32895	
2026	0	65535	32870	
2027	0	65535	32770	
2028	0	65535	32671	
2029	0	65535	32540	
2030	0	65535	32548	
2031	0	65535	32586	
2032	0	65535	32629	
2033	0	65535	32628	
2034	0	65535	32625	
2035	0	65535	32646	
2036	0	65535	32772	
2037	0	65535	32916	
2038	0	65535	33042	
2039	0	65535	33061	
2040	0	65535	32959	
2041	0	65535	32904	
2042	0	65535	32933	
2043	0	65535	32937	
2044	0	65535	32894	
2045	0	65535	32866	
2046	0	65535	32860	
2047	0	65535	32792	
2048	0	65535	32670	
2049	0	65535	32627	
2050	0	65535	32639	
2051	0	65535	32629	
2052	0	65535	32620	
2053	0	65535	32613	
2054	0	65535	32590	
2055	0	65535	32604	
2056	0	65535	32621	
2057	0	65535	32657	
2058	0	65535	32556	
2059	0	65535	32516	
2060	0	65535	32466	
2061	0	65535	32444	
2062	0	65535	32443	
2063	0	65535	32440	
2064	0	65535	32428	
2065	0	65535	32398	
2066	0	65535	32412	
2067	0	65535	32391	
2068	0	65535	32342	
2069	0	65535	32335	
2070	0	65535	32321	
2071	0	65535	32340	
2072	0	65535	32390	
2073	0	65535	32417	
2074	0	65535	32436	
2075	0	65535	32473	
2076	0	65535	32445	
2077	0	65535	32462	
2078	0	65535	32485	
2079	0	65535	32376	
2080	0	65535	32263	
2081	0	65535	32212	
2082	0	65535	32116	
2083	0	65535	32048	
2084	0	65535	32056	
2085	0	65535	32097	
2086	0	65535	32127	
2087	0	65535	32092	
2088	0	65535	32093	
2089	0	65535	32112	
2090	0	65535	32048	
2091	0	65535	32096	
2092	0	65535	32135	
2093	0	65535	32106	
2094	0	65535	32024	
2095	0	65535	31986	
2096	0	65535	31973	
2097	0	65535	31927	
2098	0	65535	31853	
2099	0	65535	31787	
2100	0	65535	31740	
2101	0	65535	31788	
2102	0	65535	31930	
2103	0	65535	31981	
2104	0	65535	31960	
2105	0	65535	32032	
2106	0	65535	32122	
2107	0	65535	32198	
2108	0	65535	32164	
2109	0	65535	32056	
2110	0	65535	32084	
2111	0	65535	32167	
2112	0	65535	32220	
2113	0	65535	32188	
2114	0	65535	32212	
2115	0	65535	32224	
2116	0	65535	32210	
2117	0	65535	32254	
2118	0	65535	32255	
2119	0	65535	32256	
2120	0	65535	32262	
2121	0	65535	32269	
2122	0	65535	32263	
2123	0	65535	32244	
2124	0	65535	32260	
2125	0	65535	32263	
2126	0	65535	32260	
2127	0	65535	32289	
2128	0	65535	32349	
2129	0	65535	32436	
2130	0	65535	32592	
2131	0	65535	32775	
2132	0	65535	32936	
2133	0	65535	33114	
2134	0	65535	33128	
2135	0	65535	33159	
2136	0	65535	33124	
2137	0	65535	33156	
2138	0	65535	33170	
2139	0	65535	33142	
2140	0	65535	33070	
2141	0	65535	33012	
2142	0	65535	33016	
2143	0	65535	33064	
2144	0	65535	33172	
2145	0	65535	33206	
2146	0	65535	33152	
2147	0	65535	33040	
2148	0	65535	33013	
2149	0	65535	33063	
2150	0	65535	33101	
2151	0	65535	33093	
2152	0	65535	33105	
2153	0	65535	33148	
2154	0	65535	33125	
2155	0	65535	33140	
2156	0	65535	33152	
2157	0	65535	33188	
2158	0	65535	33189	
2159	0	65535	33182	
2160	0	65535	33164	
2161	0	65535	33145	
2162	0	65535	33136	
2163	0	65535	33138	
2164	0	65535	33173	
2165	0	65535	33197	
2166	0	65535	33180	
2167	0	65535	33137	
2168	0	65535	33042	
2169	0	65535	32988	
2170	0	65535	32948	
2171	0	65535	33009	
2172	0	65535	33067	
2173	0	65535	33113	
2174	0	65535	33112	
2175	0	65535	33092	
2176	0	65535	33125	
2177	0	65535	33207	
2178	0	65535	33284	
2179	0	65535	33257	
2180	0	65535	33156	
2181	0	65535	33054	
2182	0	65535	32970	
2183	0	65535	32933	
2184	0	65535	32927	
2185	0	65535	32930	
2186	0	65535	32852	
2187	0	65535	32808	
2188	0	65535	32868	
2189	0	65535	32844	
2190	0	65535	32966	
2191	0	65535	33031	
2192	0	65535	33065	
2193	0	65535	33058	
2194	0	65535	33041	
2195	0	65535	32987	
2196	0	65535	32961	
2197	0	65535	32885	
2198	0	65535	32773	
2199	0	65535	32648	
2200	0	65535	32454	
2201	0	65535	32284	
2202	0	65535	32106	
2203	0	65535	31929	
2204	0	65535	31692	
2205	0	65535	31418	
2206	0	65535	31172	
2207	0	65535	30808	
2208	0	65535	30452	
2209	0	65535	30114	
2210	0	65535	29754	
2211	0	65535	29532	
2212	0	65535	29348	
2213	0	65535	29218	
2214	0	65535	29156	
2215	0	65535	29142	
2216	0	65535	29094	
2217	0	65535	29037	
2218	0	65535	28944	
2219	0	65535	28825	
2220	0	65535	28592	
2221	0	65535	28340	
2222	0	65535	28036	
2223	0	65535	27801	
2224	0	65535	27767	
2225	0	65535	28052	
2226	0	65535	28596	
2227	0	65535	29364	
2228	0	65535	30308	
2229	0	65535	31448	
2230	0	65535	32586	
2231	0	65535	33585	
2232	0	65535	34439	
2233	0	65535	35172	
2234	0	65535	35892	
2235	0	65535	36470	
2236	0	65535	36978	
2237	0	65535	37362	
2238	0	65535	37584	
2239	0	65535	37684	
2240	0	65535	37700	
2241	0	65535	37732	
2242	0	65535	37767	
2243	0	65535	37868	
2244	0	65535	37981	
2245	0	65535	38120	
2246	0	65535	38247	
2247	0	65535	38133	
2248	0	65535	37980	
2249	0	65535	37840	
2250	0	65535	37740	
2251	0	65535	37578	
2252	0	65535	37461	
2253	0	65535	37282	
2254	0	65535	37020	
2255	0	65535	36772	
2256	0	65535	36516	
2257	0	65535	36257	
2258	0	65535	35937	
2259	0	65535	35591	
2260	0	65535	35188	
2261	0	65535	34813	
2262	0	65535	34490	
2263	0	65535	34197	
2264	0	65535	33894	
2265	0	65535	33608	
2266	0	65535	33357	
2267	0	65535	33128	
2268	0	65535	32966	
2269	0	65535	32894	
2270	0	65535	32863	
2271	0	65535	32806	
2272	0	65535	32784	
2273	0	65535	32736	
2274	0	65535	32628	
2275	0	65535	32562	
2276	0	65535	32537	
2277	0	65535	32519	
2278	0	65535	32503	
2279	0	65535	32459	
2280	0	65535	32465	
2281	0	65535	32438	
2282	0	65535	32375	
2283	0	65535	32320	
2284	0	65535	32306	
2285	0	65535	32263	
2286	0	65535	32194	
2287	0	65535	32137	
2288	0	65535	32090	
2289	0	65535	32072	
2290	0	65535	32062	
2291	0	65535	32109	
2292	0	65535	32172	
2293	0	65535	32242	
2294	0	65535	32304	
2295	0	65535	32354	
2296	0	65535	32352	
2297	0	65535	32332	
2298	0	65535	32315	
2299	0	65535	32228	
2300	0	65535	32126	
2301	0	65535	32007	
2302	0	65535	31873	
2303	0	65535	31864	
2304	0	65535	31872	
2305	0	65535	31919	
2306	0	65535	31934	
2307	0	65535	31922	
2308	0	65535	31972	
2309	0	65535	32044	
2310	0	65535	32092	
2311	0	65535	32148	
2312	0	65535	32140	
2313	0	65535	32102	
2314	0	65535	32076	
2315	0	65535	31974	
2316	0	65535	31981	
2317	0	65535	32025	
2318	0	65535	32022	
2319	0	65535	31966	
2320	0	65535	31953	
2321	0	65535	31878	
2322	0	65535	31853	
2323	0	65535	31916	
2324	0	65535	31964	
2325	0	65535	31926	
2326	0	65535	31854	
2327	0	65535	31752	
2328	0	65535	31733	
2329	0	65535	31751	
2330	0	65535	31778	
2331	0	65535	31844	
2332	0	65535	31968	
2333	0	65535	32007	
2334	0	65535	31984	
2335	0	65535	32024	
2336	0	65535	32056	
2337	0	65535	32085	
2338	0	65535	32067	
2339	0	65535	31972	
2340	0	65535	31885	
2341	0	65535	31820	
2342	0	65535	31751	
2343	0	65535	31720	
2344	0	65535	31751	
2345	0	65535	31815	
2346	0	65535	31878	
2347	0	65535	31904	
2348	0	65535	31772	
2349	0	65535	31696	
2350	0	65535	31688	
2351	0	65535	31696	
2352	0	65535	31740	
2353	0	65535	31751	
2354	0	65535	31774	
2355	0	65535	31808	
2356	0	65535	31849	
2357	0	65535	32010	
2358	0	65535	32070	
2359	0	65535	32054	
2360	0	65535	31952	
2361	0	65535	31751	
2362	0	65535	31568	
2363	0	65535	31523	
2364	0	65535	31481	
2365	0	65535	31460	
2366	0	65535	31495	
2367	0	65535	31524	
2368	0	65535	31604	
2369	0	65535	31650	
2370	0	65535	31740	
2371	0	65535	31781	
2372	0	65535	31749	
2373	0	65535	31644	
2374	0	65535	31609	
2375	0	65535	31597	
2376	0	65535	31581	
2377	0	65535	31638	
2378	0	65535	31708	
2379	0	65535	31642	
2380	0	65535	31556	
2381	0	65535	31484	
2382	0	65535	31388	
2383	0	65535	31364	
2384	0	65535	31361	
2385	0	65535	31400	
2386	0	65535	31361	
2387	0	65535	31268	
2388	0	65535	31118	
2389	0	65535	31157	
2390	0	65535	31212	
2391	0	65535	31297	
2392	0	65535	31418	
2393	0	65535	31480	
2394	0	65535	31444	
2395	0	65535	31326	
2396	0	65535	31310	
2397	0	65535	31329	
2398	0	65535	31308	
2399	0	65535	31265	
2400	0	65535	31188	
2401	0	65535	31193	
2402	0	65535	31154	
2403	0	65535	31184	
2404	0	65535	31141	
2405	0	65535	31058	
2406	0	65535	30996	
2407	0	65535	30940	
2408	0	65535	30842	
2409	0	65535	30814	
2410	0	65535	30912	
2411	0	65535	31018	
2412	0	65535	31044	
2413	0	65535	31020	
2414	0	65535	30983	
2415	0	65535	30968	
2416	0	65535	30924	
2417	0	65535	30815	
2418	0	65535	30749	
2419	0	65535	30688	
2420	0	65535	30625	
2421	0	65535	30604	
2422	0	65535	30490	
2423	0	65535	30405	
2424	0	65535	30356	
2425	0	65535	30328	
2426	0	65535	30215	
2427	0	65535	30120	
2428	0	65535	30058	
2429	0	65535	30006	
2430	0	65535	29959	
2431	0	65535	29959	
2432	0	65535	29974	
2433	0	65535	30008	
2434	0	65535	29980	
2435	0	65535	30004	
2436	0	65535	30018	
2437	0	65535	30092	
2438	0	65535	30098	
2439	0	65535	30000	
2440	0	65535	29820	
2441	0	65535	29690	
2442	0	65535	29566	
2443	0	65535	29492	
2444	0	65535	29487	
2445	0	65535	29508	
2446	0	65535	29532	
2447	0	65535	29513	
2448	0	65535	29549	
2449	0	65535	29536	
2450	0	65535	29524	
2451	0	65535	29454	
2452	0	65535	29469	
2453	0	65535	29470	
2454	0	65535	29444	
2455	0	65535	29424	
2456	0	65535	29468	
2457	0	65535	29564	
2458	0	65535	29652	
2459	0	65535	29703	
2460	0	65535	29660	
2461	0	65535	29532	
2462	0	65535	29400	
2463	0	65535	29397	
2464	0	65535	29400	
2465	0	65535	29432	
2466	0	65535	29537	
2467	0	65535	29607	
2468	0	65535	29549	
2469	0	65535	29520	
2470	0	65535	29516	
2471	0	65535	29668	
2472	0	65535	29808	
2473	0	65535	29983	
2474	0	65535	29993	
2475	0	65535	29959	
2476	0	65535	29911	
2477	0	65535	30014	
2478	0	65535	30104	
2479	0	65535	30215	
2480	0	65535	30320	
2481	0	65535	30418	
2482	0	65535	30384	
2483	0	65535	30432	
2484	0	65535	30449	
2485	0	65535	30574	
2486	0	65535	30662	
2487	0	65535	30742	
2488	0	65535	30944	
2489	0	65535	31188	
2490	0	65535	31308	
2491	0	65535	31344	
2492	0	65535	31460	
2493	0	65535	31568	
2494	0	65535	31736	
2495	0	65535	31872	
2496	0	65535	32068	
2497	0	65535	32298	
2498	0	65535	32424	
2499	0	65535	32505	
2500	0	65535	32504	
2501	0	65535	32537	
2502	0	65535	32576	
2503	0	65535	32656	
2504	0	65535	32732	
2505	0	65535	32824	
2506	0	65535	32974	
2507	0	65535	33193	
2508	0	65535	33306	
2509	0	65535	33388	
2510	0	65535	33482	
2511	0	65535	33562	
2512	0	65535	33670	
2513	0	65535	33773	
2514	0	65535	33852	
2515	0	65535	33927	
2516	0	65535	34085	
2517	0	65535	34260	
2518	0	65535	34398	
2519	0	65535	34438	
2520	0	65535	34388	
2521	0	65535	34372	
2522	0	65535	34262	
2523	0	65535	34252	
2524	0	65535	34283	
2525	0	65535	34324	
2526	0	65535	34439	
2527	0	65535	34520	
2528	0	65535	34534	
2529	0	65535	34536	
2530	0	65535	34521	
2531	0	65535	34567	
2532	0	65535	34592	
2533	0	65535	34610	
2534	0	65535	34700	
2535	0	65535	34860	
2536	0	65535	34948	
2537	0	65535	35052	
2538	0	65535	35064	
2539	0	65535	34988	
2540	0	65535	34884	
2541	0	65535	34748	
2542	0	65535	34668	
2543	0	65535	34728	
2544	0	65535	34864	
2545	0	65535	34788	
2546	0	65535	34749	
2547	0	65535	34674	
2548	0	65535	34615	
2549	0	65535	34624	
2550	0	65535	34725	
2551	0	65535	34869	
2552	0	65535	34916	
2553	0	65535	34937	
2554	0	65535	34976	
2555	0	65535	34960	
2556	0	65535	34926	
2557	0	65535	34888	
2558	0	65535	34896	
2559	0	65535	34894	
2560	0	65535	34964	
2561	0	65535	34957	
2562	0	65535	34916	
2563	0	65535	34836	
2564	0	65535	34764	
2565	0	65535	34684	
2566	0	65535	34636	
2567	0	65535	34562	
2568	0	65535	34496	
2569	0	65535	34560	
2570	0	65535	34678	
2571	0	65535	34823	
2572	0	65535	34774	
2573	0	65535	34684	
2574	0	65535	34620	
2575	0	65535	34596	
2576	0	65535	34617	
2577	0	65535	34603	
2578	0	65535	34592	
2579	0	65535	34649	
2580	0	65535	34590	
2581	0	65535	34432	
2582	0	65535	34292	
2583	0	65535	34242	
2584	0	65535	34270	
2585	0	65535	34384	
2586	0	65535	34444	
2587	0	65535	34421	
2588	0	65535	34368	
2589	0	65535	34359	
2590	0	65535	34448	
2591	0	65535	34508	
2592	0	65535	34586	
2593	0	65535	34587	
2594	0	65535	34524	
2595	0	65535	34476	
2596	0	65535	34406	
2597	0	65535	34381	
2598	0	65535	34372	
2599	0	65535	34353	
2600	0	65535	34364	
2601	0	65535	34332	
2602	0	65535	34285	
2603	0	65535	34188	
2604	0	65535	34068	
2605	0	65535	34028	
2606	0	65535	34004	
2607	0	65535	33967	
2608	0	65535	34000	
2609	0	65535	34044	
2610	0	65535	34106	
2611	0	65535	34124	
2612	0	65535	34159	
2613	0	65535	34151	
2614	0	65535	34120	
2615	0	65535	34148	
2616	0	65535	34216	
2617	0	65535	34244	
2618	0	65535	34192	
2619	0	65535	34040	
2620	0	65535	33927	
2621	0	65535	33855	
2622	0	65535	33792	
2623	0	65535	33768	
2624	0	65535	33831	
2625	0	65535	33908	
2626	0	65535	33848	
2627	0	65535	33710	
2628	0	65535	33665	
2629	0	65535	33671	
2630	0	65535	33719	
2631	0	65535	33766	
2632	0	65535	33799	
2633	0	65535	33892	
2634	0	65535	33949	
2635	0	65535	33986	
2636	0	65535	33945	
2637	0	65535	33876	
2638	0	65535	33884	
2639	0	65535	33841	
2640	0	65535	33761	
2641	0	65535	33671	
2642	0	65535	33607	
2643	0	65535	33585	
2644	0	65535	33584	
2645	0	65535	33586	
2646	0	65535	33604	
2647	0	65535	33526	
2648	0	65535	33543	
2649	0	65535	33606	
2650	0	65535	33655	
2651	0	65535	33678	
2652	0	65535	33652	
2653	0	65535	33604	
2654	0	65535	33543	
2655	0	65535	33504	
2656	0	65535	33474	
2657	0	65535	33504	
2658	0	65535	33655	
2659	0	65535	33720	
2660	0	65535	33598	
2661	0	65535	33400	
2662	0	65535	33287	
2663	0	65535	33254	
2664	0	65535	33280	
2665	0	65535	33328	
2666	0	65535	33332	
2667	0	65535	33344	
2668	0	65535	33282	
2669	0	65535	33240	
2670	0	65535	33238	
2671	0	65535	33287	
2672	0	65535	33340	
2673	0	65535	33487	
2674	0	65535	33556	
2675	0	65535	33564	
2676	0	65535	33580	
2677	0	65535	33580	
2678	0	65535	33492	
2679	0	65535	33442	
2680	0	65535	33353	
2681	0	65535	33266	
2682	0	65535	33184	
2683	0	65535	33185	
2684	0	65535	33246	
2685	0	65535	33338	
2686	0	65535	33359	
2687	0	65535	33287	
2688	0	65535	33284	
2689	0	65535	33274	
2690	0	65535	33259	
2691	0	65535	33348	
2692	0	65535	33280	
2693	0	65535	33260	
2694	0	65535	33287	
2695	0	65535	33400	
2696	0	65535	33492	
2697	0	65535	33500	
2698	0	65535	33433	
2699	0	65535	33300	
2700	0	65535	33152	
2701	0	65535	33052	
2702	0	65535	33009	
2703	0	65535	33064	
2704	0	65535	33150	
2705	0	65535	33144	
2706	0	65535	33104	
2707	0	65535	33028	
2708	0	65535	33026	
2709	0	65535	33095	
2710	0	65535	33202	
2711	0	65535	33287	
2712	0	65535	33356	
2713	0	65535	33313	
2714	0	65535	33238	
2715	0	65535	33192	
2716	0	65535	33208	
2717	0	65535	33268	
2718	0	65535	33327	
2719	0	65535	33396	
2720	0	65535	33450	
2721	0	65535	33339	
2722	0	65535	33268	
2723	0	65535	33207	
2724	0	65535	33224	
2725	0	65535	33188	
2726	0	65535	33154	
2727	0	65535	33098	
2728	0	65535	33098	
2729	0	65535	33142	
2730	0	65535	33228	
2731	0	65535	33279	
2732	0	65535	33336	
2733	0	65535	33364	
2734	0	65535	33286	
2735	0	65535	33159	
2736	0	65535	33154	
2737	0	65535	33212	
2738	0	65535	33205	
2739	0	65535	33159	
2740	0	65535	33083	
2741	0	65535	33112	
2742	0	65535	33087	
2743	0	65535	33121	
2744	0	65535	33252	
2745	0	65535	33279	
2746	0	65535	33262	
2747	0	65535	33208	
2748	0	65535	33168	
2749	0	65535	33144	
2750	0	65535	33173	
2751	0	65535	33122	
2752	0	65535	33152	
2753	0	65535	33190	
2754	0	65535	33219	
2755	0	65535	33232	
2756	0	65535	33220	
2757	0	65535	33225	
2758	0	65535	33238	
2759	0	65535	33185	
2760	0	65535	33111	
2761	0	65535	33056	
2762	0	65535	32976	
2763	0	65535	32936	
2764	0	65535	32985	
2765	0	65535	33116	
2766	0	65535	33186	
2767	0	65535	33102	
2768	0	65535	33084	
2769	0	65535	33076	
2770	0	65535	33108	
2771	0	65535	33167	
2772	0	65535	33129	
2773	0	65535	33068	
2774	0	65535	33085	
2775	0	65535	33091	
2776	0	65535	33000	
2777	0	65535	32996	
2778	0	65535	32977	
2779	0	65535	32918	
2780	0	65535	32879	
2781	0	65535	32853	
2782	0	65535	32868	
2783	0	65535	32868	
2784	0	65535	32888	
2785	0	65535	32944	
2786	0	65535	33016	
2787	0	65535	33052	
2788	0	65535	33006	
2789	0	65535	33046	
2790	0	65535	33068	
2791	0	65535	33107	
2792	0	65535	33096	
2793	0	65535	33184	
2794	0	65535	33176	
2795	0	65535	33162	
2796	0	65535	33159	
2797	0	65535	33095	
2798	0	65535	33057	
2799	0	65535	32996	
2800	0	65535	32965	
2801	0	65535	32917	
2802	0	65535	32886	
2803	0	65535	32899	
2804	0	65535	32952	
2805	0	65535	33012	
2806	0	65535	33092	
2807	0	65535	33092	
2808	0	65535	33028	
2809	0	65535	32959	
2810	0	65535	32903	
2811	0	65535	32948	
2812	0	65535	32968	
2813	0	65535	32967	
2814	0	65535	32968	
2815	0	65535	33006	
2816	0	65535	33054	
2817	0	65535	33088	
2818	0	65535	33085	
2819	0	65535	33082	
2820	0	65535	33026	
2821	0	65535	32933	
2822	0	65535	32908	
2823	0	65535	32926	
2824	0	65535	32952	
2825	0	65535	33000	
2826	0	65535	33057	
2827	0	65535	33014	
2828	0	65535	32940	
2829	0	65535	32902	
2830	0	65535	32930	
2831	0	65535	32926	
2832	0	65535	32874	
2833	0	65535	32830	
2834	0	65535	32839	
2835	0	65535	32886	
2836	0	65535	33020	
2837	0	65535	33103	
2838	0	65535	33073	
2839	0	65535	32988	
2840	0	65535	32822	
2841	0	65535	32718	
2842	0	65535	32713	
2843	0	65535	32701	
2844	0	65535	32702	
2845	0	65535	32734	
2846	0	65535	32775	
2847	0	65535	32766	
2848	0	65535	32738	
2849	0	65535	32802	
2850	0	65535	32871	
2851	0	65535	32994	
2852	0	65535	33020	
2853	0	65535	33022	
2854	0	65535	33038	
2855	0	65535	33025	
2856	0	65535	33012	
2857	0	65535	33041	
2858	0	65535	33031	
2859	0	65535	32948	
2860	0	65535	32846	
2861	0	65535	32775	
2862	0	65535	32672	
2863	0	65535	32638	
2864	0	65535	32639	
2865	0	65535	32647	
2866	0	65535	32652	
2867	0	65535	32696	
2868	0	65535	32688	
2869	0	65535	32764	
2870	0	65535	32828	
2871	0	65535	32913	
2872	0	65535	32980	
2873	0	65535	32977	
2874	0	65535	32962	
2875	0	65535	32962	
2876	0	65535	33000	
2877	0	65535	32969	
2878	0	65535	32974	
2879	0	65535	32983	
2880	0	65535	32913	
2881	0	65535	32876	
2882	0	65535	32847	
2883	0	65535	32848	
2884	0	65535	32864	
2885	0	65535	32842	
2886	0	65535	32788	
2887	0	65535	32740	
2888	0	65535	32749	
2889	0	65535	32775	
2890	0	65535	32848	
2891	0	65535	32856	
2892	0	65535	32870	
2893	0	65535	32900	
2894	0	65535	32840	
2895	0	65535	32823	
2896	0	65535	32844	
2897	0	65535	32916	
2898	0	65535	33006	
2899	0	65535	32974	
2900	0	65535	32869	
2901	0	65535	32788	
2902	0	65535	32714	
2903	0	65535	32668	
2904	0	65535	32634	
2905	0	65535	32654	
2906	0	65535	32619	
2907	0	65535	32582	
2908	0	65535	32542	
2909	0	65535	32561	
2910	0	65535	32645	
2911	0	65535	32692	
2912	0	65535	32748	
2913	0	65535	32774	
2914	0	65535	32788	
2915	0	65535	32809	
2916	0	65535	32840	
2917	0	65535	32912	
2918	0	65535	32952	
2919	0	65535	32938	
2920	0	65535	32855	
2921	0	65535	32774	
2922	0	65535	32748	
2923	0	65535	32772	
2924	0	65535	32757	
2925	0	65535	32800	
2926	0	65535	32825	
2927	0	65535	32799	
2928	0	65535	32688	
2929	0	65535	32676	
2930	0	65535	32748	
2931	0	65535	32775	
2932	0	65535	32801	
2933	0	65535	32836	
2934	0	65535	32844	
2935	0	65535	32889	
2936	0	65535	32926	
2937	0	65535	32971	
2938	0	65535	32966	
2939	0	65535	32944	
2940	0	65535	32877	
2941	0	65535	32789	
2942	0	65535	32790	
2943	0	65535	32740	
2944	0	65535	32706	
2945	0	65535	32676	
2946	0	65535	32681	
2947	0	65535	32652	
2948	0	65535	32588	
2949	0	65535	32508	
2950	0	65535	32519	
2951	0	65535	32622	
2952	0	65535	32671	
2953	0	65535	32620	
2954	0	65535	32600	
2955	0	65535	32598	
2956	0	65535	32621	
2957	0	65535	32660	
2958	0	65535	32662	
2959	0	65535	32668	
2960	0	65535	32581	
2961	0	65535	32457	
2962	0	65535	32328	
2963	0	65535	32312	
2964	0	65535	32248	
2965	0	65535	32288	
2966	0	65535	32316	
2967	0	65535	32256	
2968	0	65535	32196	
2969	0	65535	32160	
2970	0	65535	32178	
2971	0	65535	32284	
2972	0	65535	32344	
2973	0	65535	32388	
2974	0	65535	32337	
2975	0	65535	32286	
2976	0	65535	32192	
2977	0	65535	32200	
2978	0	65535	32285	
2979	0	65535	32324	
2980	0	65535	32280	
2981	0	65535	32263	
2982	0	65535	32256	
2983	0	65535	32248	
2984	0	65535	32244	
2985	0	65535	32230	
2986	0	65535	32214	
2987	0	65535	32252	
2988	0	65535	32144	
2989	0	65535	32038	
2990	0	65535	31928	
2991	0	65535	31948	
2992	0	65535	31924	
2993	0	65535	31950	
2994	0	65535	31954	
2995	0	65535	31980	
2996	0	65535	32086	
2997	0	65535	32170	
2998	0	65535	32239	
2999	0	65535	32283	
3000	0	65535	32252	
3001	0	65535	32196	
3002	0	65535	32150	
3003	0	65535	32083	
3004	0	65535	32022	
3005	0	65535	31994	
3006	0	65535	31918	
3007	0	65535	31896	
3008	0	65535	31898	
3009	0	65535	31940	
3010	0	65535	32069	
3011	0	65535	32228	
3012	0	65535	32260	
3013	0	65535	32263	
3014	0	65535	32272	
3015	0	65535	32216	
3016	0	65535	32274	
3017	0	65535	32324	
3018	0	65535	32356	
3019	0	65535	32402	
3020	0	65535	32474	
3021	0	65535	32478	
3022	0	65535	32532	
3023	0	65535	32552	
3024	0	65535	32594	
3025	0	65535	32668	
3026	0	65535	32664	
3027	0	65535	32652	
3028	0	65535	32653	
3029	0	65535	32690	
3030	0	65535	32820	
3031	0	65535	32977	
3032	0	65535	33174	
3033	0	65535	33256	
3034	0	65535	33328	
3035	0	65535	33357	
3036	0	65535	33384	
3037	0	65535	33316	
3038	0	65535	33279	
3039	0	65535	33222	
3040	0	65535	33268	
3041	0	65535	33304	
3042	0	65535	33287	
3043	0	65535	33252	
3044	0	65535	33172	
3045	0	65535	33159	
3046	0	65535	33145	
3047	0	65535	33148	
3048	0	65535	33083	
3049	0	65535	33079	
3050	0	65535	33096	
3051	0	65535	33181	
3052	0	65535	33252	
3053	0	65535	33287	
3054	0	65535	33297	
3055	0	65535	33308	
3056	0	65535	33287	
3057	0	65535	33232	
3058	0	65535	33216	
3059	0	65535	33189	
3060	0	65535	33141	
3061	0	65535	33116	
3062	0	65535	33230	
3063	0	65535	33340	
3064	0	65535	33268	
3065	0	65535	33101	
3066	0	65535	33028	
3067	0	65535	32988	
3068	0	65535	33009	
3069	0	65535	33100	
3070	0	65535	33135	
3071	0	65535	33256	
3072	0	65535	33333	
3073	0	65535	33393	
3074	0	65535	33420	
3075	0	65535	33370	
3076	0	65535	33300	
3077	0	65535	33276	
3078	0	65535	33278	
3079	0	65535	33236	
3080	0	65535	33158	
3081	0	65535	33070	
3082	0	65535	33038	
3083	0	65535	33072	
3084	0	65535	33125	
3085	0	65535	33184	
3086	0	65535	33188	
3087	0	65535	33041	
3088	0	65535	33008	
3089	0	65535	32974	
3090	0	65535	32984	
3091	0	65535	33002	
3092	0	65535	32981	
3093	0	65535	32924	
3094	0	65535	32918	
3095	0	65535	32842	
3096	0	65535	32733	
3097	0	65535	32564	
3098	0	65535	32228	
3099	0	65535	31922	
3100	0	65535	31557	
3101	0	65535	31202	
3102	0	65535	30869	
3103	0	65535	30582	
3104	0	65535	30339	
3105	0	65535	30066	
3106	0	65535	29778	
3107	0	65535	29524	
3108	0	65535	29300	
3109	0	65535	29220	
3110	0	65535	29073	
3111	0	65535	28992	
3112	0	65535	28846	
3113	0	65535	28668	
3114	0	65535	28464	
3115	0	65535	28308	
3116	0	65535	28008	
3117	0	65535	27807	
3118	0	65535	27621	
3119	0	65535	27440	
3120	0	65535	27378	
3121	0	65535	27655	
3122	0	65535	28187	
3123	0	65535	29012	
3124	0	65535	30036	
3125	0	65535	31268	
3126	0	65535	32413	
3127	0	65535	33376	
3128	0	65535	34272	
3129	0	65535	35156	
3130	0	65535	35920	
3131	0	65535	36644	
3132	0	65535	37184	
3133	0	65535	37583	
3134	0	65535	37760	
3135	0	65535	37940	
3136	0	65535	38116	
3137	0	65535	38256	
3138	0	65535	38292	
3139	0	65535	38314	
3140	0	65535	38288	
3141	0	65535	38246	
3142	0	65535	38175	
3143	0	65535	38098	
3144	0	65535	37999	
3145	0	65535	37836	
3146	0	65535	37608	
3147	0	65535	37322	
3148	0	65535	37052	
3149	0	65535	36805	
3150	0	65535	36540	
3151	0	65535	36263	
3152	0	65535	35972	
3153	0	65535	35620	
3154	0	65535	35300	
3155	0	65535	35028	
3156	0	65535	34743	
3157	0	65535	34457	
3158	0	65535	34180	
3159	0	65535	33954	
3160	0	65535	33674	
3161	0	65535	33454	
3162	0	65535	33300	
3163	0	65535	33176	
3164	0	65535	33041	
3165	0	65535	32902	
3166	0	65535	32806	
3167	0	65535	32767	
3168	0	65535	32744	
3169	0	65535	32717	
3170	0	65535	32754	
3171	0	65535	32765	
3172	0	65535	32767	
3173	0	65535	32810	
3174	0	65535	32748	
3175	0	65535	32695	
3176	0	65535	32618	
3177	0	65535	32580	
3178	0	65535	32590	
3179	0	65535	32482	
3180	0	65535	32420	
3181	0	65535	32306	
3182	0	65535	32238	
3183	0	65535	32221	
3184	0	65535	32196	
3185	0	65535	32156	
3186	0	65535	32172	
3187	0	65535	32170	
3188	0	65535	32157	
3189	0	65535	32140	
3190	0	65535	32180	
3191	0	65535	32274	
3192	0	65535	32344	
3193	0	65535	32416	
3194	0	65535	32519	
3195	0	65535	32380	
3196	0	65535	32320	
3197	0	65535	32296	
3198	0	65535	32289	
3199	0	65535	32248	
3200	0	65535	32254	
3201	0	65535	32272	
3202	0	65535	32302	
3203	0	65535	32367	
3204	0	65535	32336	
3205	0	65535	32257	
3206	0	65535	32132	
3207	0	65535	32084	
3208	0	65535	32052	
3209	0	65535	31982	
3210	0	65535	32032	
3211	0	65535	32080	
3212	0	65535	32107	
3213	0	65535	32110	
3214	0	65535	32150	
3215	0	65535	32152	
3216	0	65535	32132	
3217	0	65535	32170	
3218	0	65535	32250	
3219	0	65535	32276	
3220	0	65535	32263	
3221	0	65535	32228	
3222	0	65535	32174	
3223	0	65535	32132	
3224	0	65535	32052	
3225	0	65535	32030	
3226	0	65535	31988	
3227	0	65535	32020	
3228	0	65535	32040	
3229	0	65535	32052	
3230	0	65535	32092	
3231	0	65535	32164	
3232	0	65535	32230	
3233	0	65535	32216	
3234	0	65535	32132	
3235	0	65535	32007	
3236	0	65535	32007	
3237	0	65535	32048	
3238	0	65535	32042	
3239	0	65535	32004	
3240	0	65535	31952	
3241	0	65535	31903	
3242	0	65535	31858	
3243	0	65535	31852	
3244	0	65535	31868	
3245	0	65535	31858	
3246	0	65535	31831	
3247	0	65535	31797	
3248	0	65535	31756	
3249	0	65535	31798	
3250	0	65535	31866	
3251	0	65535	31944	
3252	0	65535	31965	
3253	0	65535	31970	
3254	0	65535	31985	
3255	0	65535	31990	
3256	0	65535	31975	
3257	0	65535	32106	
3258	0	65535	32134	
3259	0	65535	32063	
3260	0	65535	31948	
3261	0	65535	31888	
3262	0	65535	31794	
3263	0	65535	31770	
3264	0	65535	31764	
3265	0	65535	31765	
3266	0	65535	31796	
3267	0	65535	31892	
3268	0	65535	31842	
3269	0	65535	31837	
3270	0	65535	31920	
3271	0	65535	31945	
3272	0	65535	31894	
3273	0	65535	31861	
3274	0	65535	31832	
3275	0	65535	31790	
3276	0	65535	31816	
3277	0	65535	31852	
3278	0	65535	31844	
3279	0	65535	31788	
3280	0	65535	31728	
3281	0	65535	31724	
3282	0	65535	31672	
3283	0	65535	31666	
3284	0	65535	31680	
3285	0	65535	31660	
3286	0	65535	31582	
3287	0	65535	31516	
3288	0	65535	31516	
3289	0	65535	31598	
3290	0	65535	31628	
3291	0	65535	31632	
3292	0	65535	31584	
3293	0	65535	31492	
3294	0	65535	31466	
3295	0	65535	31416	
3296	0	65535	31430	
3297	0	65535	31404	
3298	0	65535	31367	
3299	0	65535	31272	
3300	0	65535	31223	
3301	0	65535	31200	
3302	0	65535	31196	
3303	0	65535	31152	
3304	0	65535	31174	
3305	0	65535	31082	
3306	0	65535	30927	
3307	0	65535	30932	
3308	0	65535	30916	
3309	0	65535	30956	
3310	0	65535	30992	
3311	0	65535	31036	
3312	0	65535	31048	
3313	0	65535	30972	
3314	0	65535	30920	
3315	0	65535	30844	
3316	0	65535	30740	
3317	0	65535	30764	
3318	0	65535	30750	
3319	0	65535	30698	
3320	0	65535	30604	
3321	0	65535	30486	
3322	0	65535	30439	
3323	0	65535	30332	
3324	0	65535	30284	
3325	0	65535	30313	
3326	0	65535	30296	
3327	0	65535	30225	
3328	0	65535	30180	
3329	0	65535	30138	
3330	0	65535	30128	
3331	0	65535	30112	
3332	0	65535	30109	
3333	0	65535	30058	
3334	0	65535	29943	
3335	0	65535	29948	
3336	0	65535	29928	
3337	0	65535	29972	
3338	0	65535	29996	
3339	0	65535	30016	
3340	0	65535	30000	
3341	0	65535	29966	
3342	0	65535	29912	
3343	0	65535	29836	
3344	0	65535	29724	
3345	0	65535	29703	
3346	0	65535	29669	
3347	0	65535	29654	
3348	0	65535	29637	
3349	0	65535	29624	
3350	0	65535	29670	
3351	0	65535	29703	
3352	0	65535	29694	
3353	0	65535	29672	
3354	0	65535	29703	
3355	0	65535	29844	
3356	0	65535	29890	
3357	0	65535	29927	
3358	0	65535	29909	
3359	0	65535	29844	
3360	0	65535	29740	
3361	0	65535	29686	
3362	0	65535	29654	
3363	0	65535	29656	
3364	0	65535	29824	
3365	0	65535	29959	
3366	0	65535	29959	
3367	0	65535	29956	
3368	0	65535	29928	
3369	0	65535	29882	
3370	0	65535	29968	
3371	0	65535	30054	
3372	0	65535	30109	
3373	0	65535	30206	
3374	0	65535	30292	
3375	0	65535	30434	
3376	0	65535	30528	
3377	0	65535	30644	
3378	0	65535	30700	
3379	0	65535	30793	
3380	0	65535	30864	
3381	0	65535	30903	
3382	0	65535	30960	
3383	0	65535	31068	
3384	0	65535	31207	
3385	0	65535	31280	
3386	0	65535	31328	
3387	0	65535	31400	
3388	0	65535	31444	
3389	0	65535	31517	
3390	0	65535	31664	
3391	0	65535	31836	
3392	0	65535	32012	
3393	0	65535	32140	
3394	0	65535	32257	
3395	0	65535	32407	
3396	0	65535	32557	
3397	0	65535	32676	
3398	0	65535	32798	
3399	0	65535	32879	
3400	0	65535	32948	
3401	0	65535	33000	
3402	0	65535	33041	
3403	0	65535	33135	
3404	0	65535	33231	
3405	0	65535	33330	
3406	0	65535	33438	
3407	0	65535	33488	
3408	0	65535	33509	
3409	0	65535	33567	
3410	0	65535	33702	
3411	0	65535	33834	
3412	0	65535	33908	
3413	0	65535	34052	
3414	0	65535	34264	
3415	0	65535	34390	
3416	0	65535	34402	
3417	0	65535	34446	
3418	0	65535	34506	
3419	0	65535	34519	
3420	0	65535	34518	
3421	0	65535	34423	
3422	0	65535	34427	
3423	0	65535	34468	
3424	0	65535	34515	
3425	0	65535	34558	
3426	0	65535	34564	
3427	0	65535	34546	
3428	0	65535	34526	
3429	0	65535	34522	
3430	0	65535	34596	
3431	0	65535	34694	
3432	0	65535	34814	
3433	0	65535	34846	
3434	0	65535	34828	
3435	0	65535	34804	
3436	0	65535	34823	
3437	0	65535	34908	
3438	0	65535	34906	
3439	0	65535	34766	
3440	0	65535	34640	
3441	0	65535	34602	
3442	0	65535	34748	
3443	0	65535	34805	
3444	0	65535	34764	
3445	0	65535	34710	
3446	0	65535	34676	
3447	0	65535	34735	
3448	0	65535	34783	
3449	0	65535	34733	
3450	0	65535	34671	
3451	0	65535	34670	
3452	0	65535	34716	
3453	0	65535	34752	
3454	0	65535	34695	
3455	0	65535	34600	
3456	0	65535	34736	
3457	0	65535	34796	
3458	0	65535	34665	
3459	0	65535	34648	
3460	0	65535	34678	
3461	0	65535	34576	
3462	0	65535	34476	
3463	0	65535	34458	
3464	0	65535	34556	
3465	0	65535	34670	
3466	0	65535	34624	
3467	0	65535	34474	
3468	0	65535	34391	
3469	0	65535	34369	
3470	0	65535	34491	
3471	0	65535	34516	
3472	0	65535	34537	
3473	0	65535	34420	
3474	0	65535	34384	
3475	0	65535	34345	
3476	0	65535	34412	
3477	0	65535	34588	
3478	0	65535	34544	
3479	0	65535	34428	
3480	0	65535	34321	
3481	0	65535	34350	
3482	0	65535	34380	
3483	0	65535	34275	
3484	0	65535	34136	
3485	0	65535	34088	
3486	0	65535	34110	
3487	0	65535	34150	
3488	0	65535	34177	
3489	0	65535	34192	
3490	0	65535	34117	
3491	0	65535	34124	
3492	0	65535	34202	
3493	0	65535	34340	
3494	0	65535	34404	
3495	0	65535	34311	
3496	0	65535	34298	
3497	0	65535	34248	
3498	0	65535	34228	
3499	0	65535	34198	
3500	0	65535	34062	
3501	0	65535	33982	
3502	0	65535	33952	
3503	0	65535	33927	
3504	0	65535	33918	
3505	0	65535	33896	
3506	0	65535	33900	
3507	0	65535	33889	
3508	0	65535	33872	
3509	0	65535	33871	
3510	0	65535	33894	
3511	0	65535	33927	
3512	0	65535	33946	
3513	0	65535	33993	
3514	0	65535	33984	
3515	0	65535	34007	
3516	0	65535	34012	
3517	0	65535	34020	
3518	0	65535	33998	
3519	0	65535	33927	
3520	0	65535	33798	
3521	0	65535	33678	
3522	0	65535	33643	
3523	0	65535	33608	
3524	0	65535	33614	
3525	0	65535	33668	
3526	0	65535	33671	
3527	0	65535	33707	
3528	0	65535	33664	
3529	0	65535	33728	
3530	0	65535	33745	
3531	0	65535	33868	
3532	0	65535	33940	
3533	0	65535	33958	
3534	0	65535	33964	
3535	0	65535	33940	
3536	0	65535	33974	
3537	0	65535	33940	
3538	0	65535	33908	
3539	0	65535	33842	
3540	0	65535	33762	
3541	0	65535	33696	
3542	0	65535	33656	
3543	0	65535	33668	
3544	0	65535	33740	
3545	0	65535	33764	
3546	0	65535	33708	
3547	0	65535	33640	
3548	0	65535	33667	
3549	0	65535	33633	
3550	0	65535	33638	
3551	0	65535	33671	
3552	0	65535	33599	
3553	0	65535	33505	
3554	0	65535	33500	
3555	0	65535	33510	
3556	0	65535	33528	
3557	0	65535	33564	
3558	0	65535	33626	
3559	0	65535	33671	
3560	0	65535	33604	
3561	0	65535	33536	
3562	0	65535	33540	
3563	0	65535	33486	
3564	0	65535	33432	
3565	0	65535	33449	
3566	0	65535	33423	
3567	0	65535	33351	
3568	0	65535	33262	
3569	0	65535	33224	
3570	0	65535	33270	
3571	0	65535	33320	
3572	0	65535	33384	
3573	0	65535	33444	
3574	0	65535	33512	
3575	0	65535	33504	
3576	0	65535	33508	
3577	0	65535	33506	
3578	0	65535	33415	
3579	0	65535	33364	
3580	0	65535	33271	
3581	0	65535	33236	
3582	0	65535	33236	
3583	0	65535	33252	
3584	0	65535	33261	
3585	0	65535	33328	
3586	0	65535	33378	
3587	0	65535	33369	
3588	0	65535	33287	
3589	0	65535	33278	
3590	0	65535	33360	
3591	0	65535	33429	
3592	0	65535	33468	
3593	0	65535	33460	
3594	0	65535	33460	
3595	0	65535	33371	
3596	0	65535	33352	
3597	0	65535	33338	
3598	0	65535	33324	
3599	0	65535	33242	
3600	0	65535	33144	
3601	0	65535	33082	
3602	0	65535	33085	
3603	0	65535	33128	
3604	0	65535	33192	
3605	0	65535	33260	
3606	0	65535	33252	
3607	0	65535	33210	
3608	0	65535	33154	
3609	0	65535	33132	
3610	0	65535	33142	
3611	0	65535	33088	
3612	0	65535	33101	
3613	0	65535	33088	
3614	0	65535	33060	
3615	0	65535	33161	
3616	0	65535	33270	
3617	0	65535	33350	
3618	0	65535	33255	
3619	0	65535	33128	
3620	0	65535	33112	
3621	0	65535	33082	
3622	0	65535	33103	
3623	0	65535	33159	
3624	0	65535	33182	
3625	0	65535	33266	
3626	0	65535	33258	
3627	0	65535	33196	
3628	0	65535	33182	
3629	0	65535	33164	
3630	0	65535	33097	
3631	0	65535	33106	
3632	0	65535	33108	
3633	0	65535	33082	
3634	0	65535	33104	
3635	0	65535	33164	
3636	0	65535	33232	
3637	0	65535	33272	
3638	0	65535	33287	
3639	0	65535	33280	
3640	0	65535	33224	
3641	0	65535	33232	
3642	0	65535	33200	
3643	0	65535	33173	
3644	0	65535	33157	
3645	0	65535	33109	
3646	0	65535	33087	
3647	0	65535	33012	
3648	0	65535	32969	
3649	0	65535	32942	
3650	0	65535	32980	
3651	0	65535	33053	
3652	0	65535	33100	
3653	0	65535	33104	
3654	0	65535	33046	
3655	0	65535	33031	
3656	0	65535	33009	
3657	0	65535	33044	
3658	0	65535	33111	
3659	0	65535	33158	
3660	0	65535	33083	
3661	0	65535	33011	
3662	0	65535	32984	
3663	0	65535	33073	
3664	0	65535	33102	
3665	0	65535	33108	
3666	0	65535	33064	
3667	0	65535	33031	
3668	0	65535	32924	
3669	0	65535	32911	
3670	0	65535	33004	
3671	0	65535	33105	
3672	0	65535	33166	
3673	0	65535	33168	
3674	0	65535	33158	
3675	0	65535	33128	
3676	0	65535	33121	
3677	0	65535	33129	
3678	0	65535	33076	
3679	0	65535	33052	
3680	0	65535	32986	
3681	0	65535	32975	
3682	0	65535	32964	
3683	0	65535	32912	
3684	0	65535	32860	
3685	0	65535	32862	
3686	0	65535	32964	
3687	0	65535	32977	
3688	0	65535	32990	
3689	0	65535	32970	
3690	0	65535	32948	
3691	0	65535	32940	
3692	0	65535	32952	
3693	0	65535	32902	
3694	0	65535	32892	
3695	0	65535	32858	
3696	0	65535	32936	
3697	0	65535	33060	
3698	0	65535	33192	
3699	0	65535	33230	
3700	0	65535	33135	
3701	0	65535	33002	
3702	0	65535	32846	
3703	0	65535	32840	
3704	0	65535	32842	
3705	0	65535	32826	
3706	0	65535	32832	
3707	0	65535	32816	
3708	0	65535	32842	
3709	0	65535	32872	
3710	0	65535	32868	
3711	0	65535	32890	
3712	0	65535	32924	
3713	0	65535	32924	
3714	0	65535	32916	
3715	0	65535	32848	
3716	0	65535	32828	
3717	0	65535	32844	
3718	0	65535	32858	
3719	0	65535	32836	
3720	0	65535	32788	
3721	0	65535	32760	
3722	0	65535	32729	
3723	0	65535	32720	
3724	0	65535	32775	
3725	0	65535	32796	
3726	0	65535	32768	
3727	0	65535	32752	
3728	0	65535	32744	
3729	0	65535	32750	
3730	0	65535	32804	
3731	0	65535	32910	
3732	0	65535	32928	
3733	0	65535	32927	
3734	0	65535	32932	
3735	0	65535	32908	
3736	0	65535	32900	
3737	0	65535	32848	
3738	0	65535	32882	
3739	0	65535	32812	
3740	0	65535	32730	
3741	0	65535	32636	
3742	0	65535	32554	
3743	0	65535	32588	
3744	0	65535	32665	
3745	0	65535	32712	
3746	0	65535	32750	
3747	0	65535	32738	
3748	0	65535	32766	
3749	0	65535	32728	
3750	0	65535	32657	
3751	0	65535	32644	
3752	0	65535	32631	
3753	0	65535	32628	
3754	0	65535	32672	
3755	0	65535	32775	
3756	0	65535	32913	
3757	0	65535	32940	
3758	0	65535	32951	
3759	0	65535	32832	
3760	0	65535	32682	
3761	0	65535	32596	
3762	0	65535	32584	
3763	0	65535	32573	
3764	0	65535	32640	
3765	0	65535	32765	
3766	0	65535	32749	
3767	0	65535	32752	
3768	0	65535	32729	
3769	0	65535	32760	
3770	0	65535	32727	
3771	0	65535	32725	
3772	0	65535	32732	
3773	0	65535	32720	
3774	0	65535	32772	
3775	0	65535	32808	
3776	0	65535	32813	
3777	0	65535	32916	
3778	0	65535	33030	
3779	0	65535	33071	
3780	0	65535	33005	
3781	0	65535	32870	
3782	0	65535	32775	
3783	0	65535	32716	
3784	0	65535	32730	
3785	0	65535	32728	
3786	0	65535	32671	
3787	0	65535	32701	
3788	0	65535	32758	
3789	0	65535	32742	
3790	0	65535	32736	
3791	0	65535	32766	
3792	0	65535	32749	
3793	0	65535	32728	
3794	0	65535	32703	
3795	0	65535	32711	
3796	0	65535	32803	
3797	0	65535	32924	
3798	0	65535	32956	
3799	0	65535	32909	
3800	0	65535	32808	
3801	0	65535	32705	
3802	0	65535	32616	
3803	0	65535	32668	
3804	0	65535	32792	
3805	0	65535	32759	
3806	0	65535	32662	
3807	0	65535	32560	
3808	0	65535	32506	
3809	0	65535	32547	
3810	0	65535	32670	
3811	0	65535	32786	
3812	0	65535	32797	
3813	0	65535	32736	
3814	0	65535	32655	
3815	0	65535	32620	
3816	0	65535	32647	
3817	0	65535	32746	
3818	0	65535	32877	
3819	0	65535	32900	
3820	0	65535	32846	
3821	0	65535	32743	
3822	0	65535	32610	
3823	0	65535	32596	
3824	0	65535	32578	
3825	0	65535	32568	
3826	0	65535	32576	
3827	0	65535	32532	
3828	0	65535	32513	
3829	0	65535	32620	
3830	0	65535	32726	
3831	0	65535	32844	
3832	0	65535	32863	
3833	0	65535	32816	
3834	0	65535	32709	
3835	0	65535	32801	
3836	0	65535	32775	
3837	0	65535	32775	
3838	0	65535	32744	
3839	0	65535	32692	
3840	0	65535	32652	
3841	0	65535	32612	
3842	0	65535	32600	
3843	0	65535	32654	
3844	0	65535	32775	
3845	0	65535	32898	
3846	0	65535	32927	
3847	0	65535	32865	
3848	0	65535	32798	
3849	0	65535	32797	
3850	0	65535	32820	
3851	0	65535	32844	
3852	0	65535	32864	
3853	0	65535	32912	
3854	0	65535	32866	
3855	0	65535	32716	
3856	0	65535	32686	
3857	0	65535	32705	
3858	0	65535	32700	
3859	0	65535	32704	
3860	0	65535	32774	
3861	0	65535	32700	
3862	0	65535	32637	
3863	0	65535	32597	
3864	0	65535	32624	
3865	0	65535	32730	
3866	0	65535	32804	
3867	0	65535	32727	
3868	0	65535	32562	
3869	0	65535	32575	
3870	0	65535	32590	
3871	0	65535	32586	
3872	0	65535	32661	
3873	0	65535	32714	
3874	0	65535	32756	
3875	0	65535	32749	
3876	0	65535	32751	
3877	0	65535	32801	
3878	0	65535	32757	
3879	0	65535	32692	
3880	0	65535	32600	
3881	0	65535	32588	
3882	0	65535	32604	
3883	0	65535	32624	
3884	0	65535	32592	
3885	0	65535	32556	
3886	0	65535	32506	
3887	0	65535	32508	
3888	0	65535	32544	
3889	0	65535	32551	
3890	0	65535	32644	
3891	0	65535	32692	
3892	0	65535	32680	
3893	0	65535	32602	
3894	0	65535	32592	
3895	0	65535	32560	
3896	0	65535	32536	
3897	0	65535	32625	
3898	0	65535	32674	
3899	0	65535	32678	
3900	0	65535	32647	
3901	0	65535	32604	
3902	0	65535	32590	
3903	0	65535	32536	
3904	0	65535	32513	
3905	0	65535	32610	
3906	0	65535	32596	
3907	0	65535	32528	
3908	0	65535	32516	
3909	0	65535	32519	
3910	0	65535	32558	
3911	0	65535	32655	
3912	0	65535	32708	
3913	0	65535	32793	
3914	0	65535	32854	
3915	0	65535	32838	
3916	0	65535	32772	
3917	0	65535	32708	
3918	0	65535	32726	
3919	0	65535	32647	
3920	0	65535	32538	
3921	0	65535	32477	
3922	0	65535	32485	
3923	0	65535	32489	
3924	0	65535	32528	
3925	0	65535	32553	
3926	0	65535	32508	
3927	0	65535	32393	
3928	0	65535	32387	
3929	0	65535	32449	
3930	0	65535	32597	
3931	0	65535	32744	
3932	0	65535	32782	
3933	0	65535	32773	
3934	0	65535	32775	
3935	0	65535	32710	
3936	0	65535	32702	
3937	0	65535	32652	
3938	0	65535	32632	
3939	0	65535	32718	
3940	0	65535	32725	
3941	0	65535	32714	
3942	0	65535	32620	
3943	0	65535	32560	
3944	0	65535	32500	
3945	0	65535	32512	
3946	0	65535	32508	
3947	0	65535	32494	
3948	0	65535	32534	
3949	0	65535	32540	
3950	0	65535	32580	
3951	0	65535	32647	
3952	0	65535	32665	
3953	0	65535	32612	
3954	0	65535	32618	
3955	0	65535	32644	
3956	0	65535	32712	
3957	0	65535	32760	
3958	0	65535	32775	
3959	0	65535	32816	
3960	0	65535	32775	
3961	0	65535	32733	
3962	0	65535	32638	
3963	0	65535	32597	
3964	0	65535	32612	
3965	0	65535	32519	
3966	0	65535	32510	
3967	0	65535	32502	
3968	0	65535	32524	
3969	0	65535	32602	
3970	0	65535	32613	
3971	0	65535	32654	
3972	0	65535	32766	
3973	0	65535	32800	
3974	0	65535	32775	
3975	0	65535	32755	
3976	0	65535	32739	
3977	0	65535	32733	
3978	0	65535	32672	
3979	0	65535	32606	
3980	0	65535	32588	
3981	0	65535	32609	
3982	0	65535	32694	
3983	0	65535	32714	
3984	0	65535	32687	
3985	0	65535	32546	
3986	0	65535	32476	
3987	0	65535	32465	
3988	0	65535	32529	
3989	0	65535	32590	
3990	0	65535	32757	
3991	0	65535	32796	
3992	0	65535	32766	
3993	0	65535	32672	
3994	0	65535	32614	
3995	0	65535	32589	
3996	0	65535	32600	
3997	0	65535	32647	
3998	0	65535	32696	
3999	0	65535	32710	
4000	0	65535	32688	
4001	0	65535	32713	
4002	0	65535	32655	
4003	0	65535	32632	
4004	0	65535	32572	
4005	0	65535	32572	
4006	0	65535	32573	
4007	0	65535	32692	
4008	0	65535	32700	
4009	0	65535	32634	
4010	0	65535	32616	
4011	0	65535	32682	
4012	0	65535	32662	
4013	0	65535	32640	
4014	0	65535	32604	
4015	0	65535	32611	
4016	0	65535	32640	
4017	0	65535	32721	
4018	0	65535	32808	
4019	0	65535	32851	
4020	0	65535	32844	
4021	0	65535	32845	
4022	0	65535	32788	
4023	0	65535	32716	
4024	0	65535	32726	
4025	0	65535	32720	
4026	0	65535	32676	
4027	0	65535	32519	
4028	0	65535	32460	
4029	0	65535	32497	
4030	0	65535	32580	
4031	0	65535	32664	
4032	0	65535	32775	
4033	0	65535	32816	
4034	0	65535	32788	
4035	0	65535	32775	
4036	0	65535	32754	
4037	0	65535	32736	
4038	0	65535	32775	
4039	0	65535	32826	
4040	0	65535	32775	
4041	0	65535	32570	
4042	0	65535	32496	
4043	0	65535	32499	
4044	0	65535	32474	
4045	0	65535	32468	
4046	0	65535	32548	
4047	0	65535	32534	
4048	0	65535	32506	
4049	0	65535	32488	
4050	0	65535	32476	
4051	0	65535	32538	
4052	0	65535	32613	
4053	0	65535	32640	
4054	0	65535	32640	
4055	0	65535	32532	
4056	0	65535	32444	
4057	0	65535	32385	
4058	0	65535	32391	
4059	0	65535	32400	
4060	0	65535	32486	
4061	0	65535	32524	
4062	0	65535	32436	
4063	0	65535	32332	
4064	0	65535	32316	
4065	0	65535	32315	
4066	0	65535	32320	
4067	0	65535	32344	
4068	0	65535	32320	
4069	0	65535	32312	
4070	0	65535	32263	
4071	0	65535	32312	
4072	0	65535	32340	
4073	0	65535	32396	
4074	0	65535	32455	
4075	0	65535	32495	
4076	0	65535	32510	
4077	0	65535	32451	
4078	0	65535	32399	
4079	0	65535	32329	
4080	0	65535	32218	
4081	0	65535	32108	
4082	0	65535	32077	
4083	0	65535	32094	
4084	0	65535	32134	
4085	0	65535	32197	
4086	0	65535	32216	
4087	0	65535	32200	
4088	0	65535	32191	
4089	0	65535	32133	
4090	0	65535	32105	
4091	0	65535	32142	
4092	0	65535	32125	
4093	0	65535	32159	
4094	0	65535	32183	
4095	0	65535	32196	
4096	0	65535	32172	
4097	0	65535	32140	
4098	0	65535	32174	
4099	0	65535	32078	
4100	0	65535	31932	
4101	0	65535	31804	
4102	0	65535	31766	
4103	0	65535	31796	
4104	0	65535	31940	
4105	0	65535	32097	
4106	0	65535	32092	
4107	0	65535	32052	
4108	0	65535	31932	
4109	0	65535	31892	
4110	0	65535	31898	
4111	0	65535	31956	
4112	0	65535	32033	
4113	0	65535	32146	
4114	0	65535	32103	
4115	0	65535	32002	
4116	0	65535	31964	
4117	0	65535	32018	
4118	0	65535	32159	
4119	0	65535	32238	
4120	0	65535	32228	
4121	0	65535	32148	
4122	0	65535	32166	
4123	0	65535	32172	
4124	0	65535	32131	
4125	0	65535	32178	
4126	0	65535	32245	
4127	0	65535	32281	
4128	0	65535	32278	
4129	0	65535	32286	
4130	0	65535	32318	
4131	0	65535	32442	
4132	0	65535	32528	
4133	0	65535	32612	
4134	0	65535	32746	
4135	0	65535	32954	
4136	0	65535	33096	
4137	0	65535	33184	
4138	0	65535	33196	
4139	0	65535	33135	
4140	0	65535	32979	
4141	0	65535	32896	
4142	0	65535	32854	
4143	0	65535	32885	
4144	0	65535	32941	
4145	0	65535	32988	
4146	0	65535	32964	
4147	0	65535	32959	
4148	0	65535	32975	
4149	0	65535	33081	
4150	0	65535	33099	
4151	0	65535	33116	
4152	0	65535	33031	
4153	0	65535	33001	
4154	0	65535	33070	
4155	0	65535	33118	
4156	0	65535	33246	
4157	0	65535	33284	
4158	0	65535	33240	
4159	0	65535	33159	
4160	0	65535	33068	
4161	0	65535	33078	
4162	0	65535	33076	
4163	0	65535	33002	
4164	0	65535	32964	
4165	0	65535	32980	
4166	0	65535	32960	
4167	0	65535	32944	
4168	0	65535	32978	
4169	0	65535	33028	
4170	0	65535	33128	
4171	0	65535	33071	
4172	0	65535	33002	
4173	0	65535	33012	
4174	0	65535	32972	
4175	0	65535	32958	
4176	0	65535	33012	
4177	0	65535	33092	
4178	0	65535	33120	
4179	0	65535	33237	
4180	0	65535	33248	
4181	0	65535	33246	
4182	0	65535	33200	
4183	0	65535	33105	
4184	0	65535	33073	
4185	0	65535	33087	
4186	0	65535	33008	
4187	0	65535	32983	
4188	0	65535	32973	
4189	0	65535	32984	
4190	0	65535	33132	
4191	0	65535	33268	
4192	0	65535	33312	
4193	0	65535	33325	
4194	0	65535	33350	
4195	0	65535	33350	
4196	0	65535	33326	
4197	0	65535	33280	
4198	0	65535	33058	
4199	0	65535	32937	
4200	0	65535	32944	
4201	0	65535	32890	
4202	0	65535	32631	
4203	0	65535	32305	
4204	0	65535	32012	
4205	0	65535	31724	
4206	0	65535	31367	
4207	0	65535	31014	
4208	0	65535	30727	
4209	0	65535	30440	
4210	0	65535	30128	
4211	0	65535	29842	
4212	0	65535	29572	
4213	0	65535	29316	
4214	0	65535	29104	
4215	0	65535	28988	
4216	0	65535	28804	
4217	0	65535	28656	
4218	0	65535	28480	
4219	0	65535	28281	
4220	0	65535	27904	
4221	0	65535	27485	
4222	0	65535	27022	
4223	0	65535	26804	
4224	0	65535	26693	
4225	0	65535	26759	
4226	0	65535	27029	
4227	0	65535	27533	
4228	0	65535	28292	
4229	0	65535	29368	
4230	0	65535	30584	
4231	0	65535	31788	
4232	0	65535	32920	
4233	0	65535	33904	
4234	0	65535	34753	
4235	0	65535	35526	
4236	0	65535	36166	
4237	0	65535	36732	
4238	0	65535	37188	
4239	0	65535	37536	
4240	0	65535	37825	
4241	0	65535	37930	
4242	0	65535	38056	
4243	0	65535	38167	
4244	0	65535	38228	
4245	0	65535	38228	
4246	0	65535	38196	
4247	0	65535	38108	
4248	0	65535	38042	
4249	0	65535	37944	
4250	0	65535	37806	
4251	0	65535	37716	
4252	0	65535	37575	
4253	0	65535	37268	
4254	0	65535	36868	
4255	0	65535	36480	
4256	0	65535	36178	
4257	0	65535	36012	
4258	0	65535	35788	
4259	0	65535	35400	
4260	0	65535	35016	
4261	0	65535	34628	
4262	0	65535	34358	
4263	0	65535	34048	
4264	0	65535	33650	
4265	0	65535	33460	
4266	0	65535	33300	
4267	0	65535	33222	
4268	0	65535	33205	
4269	0	65535	33156	
4270	0	65535	33146	
4271	0	65535	33103	
4272	0	65535	33057	
4273	0	65535	33018	
4274	0	65535	32901	
4275	0	65535	32833	
4276	0	65535	32784	
4277	0	65535	32784	
4278	0	65535	32750	
4279	0	65535	32744	
4280	0	65535	32711	
4281	0	65535	32711	
4282	0	65535	32748	
4283	0	65535	32672	
4284	0	65535	32610	
4285	0	65535	32472	
4286	0	65535	32420	
4287	0	65535	32398	
4288	0	65535	32436	
4289	0	65535	32522	
4290	0	65535	32615	
4291	0	65535	32583	
4292	0	65535	32524	
4293	0	65535	32564	
4294	0	65535	32576	
4295	0	65535	32604	
4296	0	65535	32600	
4297	0	65535	32614	
4298	0	65535	32596	
4299	0	65535	32608	
4300	0	65535	32596	
4301	0	65535	32560	
4302	0	65535	32484	
4303	0	65535	32422	
4304	0	65535	32371	
4305	0	65535	32242	
4306	0	65535	32260	
4307	0	65535	32246	
4308	0	65535	32263	
4309	0	65535	32374	
4310	0	65535	32484	
4311	0	65535	32544	
4312	0	65535	32552	
4313	0	65535	32534	
4314	0	65535	32476	
4315	0	65535	32462	
4316	0	65535	32430	
4317	0	65535	32426	
4318	0	65535	32452	
4319	0	65535	32437	
4320	0	65535	32346	
4321	0	65535	32335	
4322	0	65535	32303	
4323	0	65535	32369	
4324	0	65535	32334	
4325	0	65535	32246	
4326	0	65535	32166	
4327	0	65535	32135	
4328	0	65535	32109	
4329	0	65535	32106	
4330	0	65535	32132	
4331	0	65535	32183	
4332	0	65535	32192	
4333	0	65535	32173	
4334	0	65535	32142	
4335	0	65535	32140	
4336	0	65535	32215	
4337	0	65535	32308	
4338	0	65535	32365	
4339	0	65535	32391	
4340	0	65535	32438	
4341	0	65535	32420	
4342	0	65535	32344	
4343	0	65535	32289	
4344	0	65535	32270	
4345	0	65535	32219	
4346	0	65535	32079	
4347	0	65535	32004	
4348	0	65535	31934	
4349	0	65535	31999	
4350	0	65535	32043	
4351	0	65535	32198	
4352	0	65535	32222	
4353	0	65535	32106	
4354	0	65535	32136	
4355	0	65535	32114	
4356	0	65535	32120	
4357	0	65535	32201	
4358	0	65535	32232	
4359	0	65535	32174	
4360	0	65535	32112	
4361	0	65535	32116	
4362	0	65535	32199	
4363	0	65535	32225	
4364	0	65535	32248	
4365	0	65535	32238	
4366	0	65535	32184	
4367	0	65535	32110	
4368	0	65535	32026	
4369	0	65535	32004	
4370	0	65535	32039	
4371	0	65535	32050	
4372	0	65535	32112	
4373	0	65535	32145	
4374	0	65535	32151	
4375	0	65535	32094	
4376	0	65535	32100	
4377	0	65535	32100	
4378	0	65535	32045	
4379	0	65535	32016	
4380	0	65535	31956	
4381	0	65535	31915	
4382	0	65535	31888	
4383	0	65535	31878	
4384	0	65535	31928	
4385	0	65535	31912	
4386	0	65535	31777	
4387	0	65535	31596	
4388	0	65535	31580	
4389	0	65535	31640	
4390	0	65535	31706	
4391	0	65535	31792	
4392	0	65535	31944	
4393	0	65535	31980	
4394	0	65535	31946	
4395	0	65535	31884	
4396	0	65535	31800	
4397	0	65535	31692	
4398	0	65535	31652	
4399	0	65535	31583	
4400	0	65535	31528	
4401	0	65535	31494	
4402	0	65535	31460	
4403	0	65535	31393	
4404	0	65535	31360	
4405	0	65535	31311	
4406	0	65535	31262	
4407	0	65535	31200	
4408	0	65535	31136	
4409	0	65535	31128	
4410	0	65535	31200	
4411	0	65535	31300	
4412	0	65535	31340	
4413	0	65535	31334	
4414	0	65535	31284	
4415	0	65535	31202	
4416	0	65535	31025	
4417	0	65535	31000	
4418	0	65535	31024	
4419	0	65535	30972	
4420	0	65535	30860	
4421	0	65535	30804	
4422	0	65535	30912	
4423	0	65535	31034	
4424	0	65535	31029	
4425	0	65535	30852	
4426	0	65535	30814	
4427	0	65535	30727	
4428	0	65535	30660	
4429	0	65535	30636	
4430	0	65535	30612	
4431	0	65535	30576	
4432	0	65535	30536	
4433	0	65535	30524	
4434	0	65535	30548	
4435	0	65535	30564	
4436	0	65535	30550	
4437	0	65535	30524	
4438	0	65535	30612	
4439	0	65535	30542	
4440	0	65535	30428	
4441	0	65535	30365	
4442	0	65535	30264	
4443	0	65535	30260	
4444	0	65535	30252	
4445	0	65535	30188	
4446	0	65535	30097	
4447	0	65535	30053	
4448	0	65535	30024	
4449	0	65535	30095	
4450	0	65535	30068	
4451	0	65535	29996	
4452	0	65535	29968	
4453	0	65535	29888	
4454	0	65535	29888	
4455	0	65535	29943	
4456	0	65535	30000	
4457	0	65535	30004	
4458	0	65535	29965	
4459	0	65535	29896	
4460	0	65535	29820	
4461	0	65535	29785	
4462	0	65535	29798	
4463	0	65535	29803	
4464	0	65535	29806	
4465	0	65535	29799	
4466	0	65535	29822	
4467	0	65535	29870	
4468	0	65535	29899	
4469	0	65535	29911	
4470	0	65535	29953	
4471	0	65535	29992	
4472	0	65535	30072	
4473	0	65535	30132	
4474	0	65535	30146	
4475	0	65535	30166	
4476	0	65535	30229	
4477	0	65535	30310	
4478	0	65535	30374	
4479	0	65535	30297	
4480	0	65535	30215	
4481	0	65535	30132	
4482	0	65535	30231	
4483	0	65535	30453	
4484	0	65535	30589	
4485	0	65535	30585	
4486	0	65535	30576	
4487	0	65535	30624	
4488	0	65535	30744	
4489	0	65535	30896	
4490	0	65535	31022	
4491	0	65535	31105	
4492	0	65535	31119	
4493	0	65535	31186	
4494	0	65535	31222	
4495	0	65535	31328	
4496	0	65535	31516	
4497	0	65535	31724	
4498	0	65535	31884	
4499	0	65535	32007	
4500	0	65535	31996	
4501	0	65535	32006	
4502	0	65535	32062	
4503	0	65535	32133	
4504	0	65535	32236	
4505	0	65535	32354	
4506	0	65535	32492	
4507	0	65535	32580	
4508	0	65535	32724	
4509	0	65535	32936	
4510	0	65535	33155	
4511	0	65535	33258	
4512	0	65535	33316	
4513	0	65535	33318	
4514	0	65535	33373	
4515	0	65535	33444	
4516	0	65535	33578	
4517	0	65535	33728	
4518	0	65535	33689	
4519	0	65535	33695	
4520	0	65535	33630	
4521	0	65535	33645	
4522	0	65535	33740	
4523	0	65535	33916	
4524	0	65535	34088	
4525	0	65535	34216	
4526	0	65535	34228	
4527	0	65535	34170	
4528	0	65535	34158	
4529	0	65535	34220	
4530	0	65535	34324	
4531	0	65535	34486	
4532	0	65535	34629	
4533	0	65535	34576	
4534	0	65535	34532	
4535	0	65535	34522	
4536	0	65535	34528	
4537	0	65535	34736	
4538	0	65535	34892	
4539	0	65535	34846	
4540	0	65535	34756	
4541	0	65535	34684	
4542	0	65535	34664	
4543	0	65535	34660	
4544	0	65535	34708	
4545	0	65535	34668	
4546	0	65535	34656	
4547	0	65535	34680	
4548	0	65535	34618	
4549	0	65535	34602	
4550	0	65535	34676	
4551	0	65535	34672	
4552	0	65535	34704	
4553	0	65535	34719	
4554	0	65535	34696	
4555	0	65535	34700	
4556	0	65535	34692	
4557	0	65535	34692	
4558	0	65535	34702	
4559	0	65535	34741	
4560	0	65535	34810	
4561	0	65535	34708	
4562	0	65535	34598	
4563	0	65535	34545	
4564	0	65535	34531	
4565	0	65535	34516	
4566	0	65535	34508	
4567	0	65535	34500	
4568	0	65535	34478	
4569	0	65535	34502	
4570	0	65535	34424	
4571	0	65535	34526	
4572	0	65535	34603	
4573	0	65535	34672	
4574	0	65535	34711	
4575	0	65535	34686	
4576	0	65535	34768	
4577	0	65535	34836	
4578	0	65535	34847	
4579	0	65535	34808	
4580	0	65535	34648	
4581	0	65535	34478	
4582	0	65535	34388	
4583	0	65535	34324	
4584	0	65535	34252	
4585	0	65535	34244	
4586	0	65535	34268	
4587	0	65535	34272	
4588	0	65535	34183	
4589	0	65535	34116	
4590	0	65535	34073	
4591	0	65535	34112	
4592	0	65535	34132	
4593	0	65535	34134	
4594	0	65535	34240	
4595	0	65535	34308	
4596	0	65535	34204	
4597	0	65535	34209	
4598	0	65535	34216	
4599	0	65535	34232	
4600	0	65535	34256	
4601	0	65535	34232	
4602	0	65535	34248	
4603	0	65535	34224	
4604	0	65535	34213	
4605	0	65535	34162	
4606	0	65535	34082	
4607	0	65535	34029	
4608	0	65535	33927	
4609	0	65535	33956	
4610	0	65535	34100	
4611	0	65535	34213	
4612	0	65535	34271	
4613	0	65535	34255	
4614	0	65535	34210	
4615	0	65535	34156	
4616	0	65535	34106	
4617	0	65535	34080	
4618	0	65535	34053	
4619	0	65535	34024	
4620	0	65535	33964	
4621	0	65535	33903	
4622	0	65535	33842	
4623	0	65535	33904	
4624	0	65535	33952	
4625	0	65535	33976	
4626	0	65535	33948	
4627	0	65535	33856	
4628	0	65535	33816	
4629	0	65535	33710	
4630	0	65535	33792	
4631	0	65535	33792	
4632	0	65535	33817	
4633	0	65535	33822	
4634	0	65535	33820	
4635	0	65535	33775	
4636	0	65535	33768	
4637	0	65535	33764	
4638	0	65535	33748	
4639	0	65535	33660	
4640	0	65535	33599	
4641	0	65535	33568	
4642	0	65535	33592	
4643	0	65535	33628	
4644	0	65535	33605	
4645	0	65535	33697	
4646	0	65535	33684	
4647	0	65535	33668	
4648	0	65535	33622	
4649	0	65535	33648	
4650	0	65535	33716	
4651	0	65535	33708	
4652	0	65535	33716	
4653	0	65535	33704	
4654	0	65535	33604	
4655	0	65535	33577	
4656	0	65535	33577	
4657	0	65535	33600	
4658	0	65535	33626	
4659	0	65535	33584	
4660	0	65535	33508	
4661	0	65535	33492	
4662	0	65535	33480	
4663	0	65535	33488	
4664	0	65535	33505	
4665	0	65535	33516	
4666	0	65535	33572	
4667	0	65535	33502	
4668	0	65535	33415	
4669	0	65535	33324	
4670	0	65535	33309	
4671	0	65535	33352	
4672	0	65535	33356	
4673	0	65535	33374	
4674	0	65535	33412	
4675	0	65535	33512	
4676	0	65535	33542	
4677	0	65535	33617	
4678	0	65535	33572	
4679	0	65535	33448	
4680	0	65535	33328	
4681	0	65535	33257	
4682	0	65535	33150	
4683	0	65535	33124	
4684	0	65535	33236	
4685	0	65535	33270	
4686	0	65535	33287	
4687	0	65535	33205	
4688	0	65535	33086	
4689	0	65535	33062	
4690	0	65535	33090	
4691	0	65535	33124	
4692	0	65535	33263	
4693	0	65535	33300	
4694	0	65535	33372	
4695	0	65535	33404	
4696	0	65535	33397	
4697	0	65535	33368	
4698	0	65535	33328	
4699	0	65535	33287	
4700	0	65535	33272	
4701	0	65535	33236	
4702	0	65535	33188	
4703	0	65535	33165	
4704	0	65535	33248	
4705	0	65535	33280	
4706	0	65535	33268	
4707	0	65535	33182	
4708	0	65535	33159	
4709	0	65535	33128	
4710	0	65535	33179	
4711	0	65535	33186	
4712	0	65535	33197	
4713	0	65535	33112	
4714	0	65535	33127	
4715	0	65535	33118	
4716	0	65535	33118	
4717	0	65535	33152	
4718	0	65535	33253	
4719	0	65535	33362	
4720	0	65535	33339	
4721	0	65535	33245	
4722	0	65535	33128	
4723	0	65535	33040	
4724	0	65535	33020	
4725	0	65535	33048	
4726	0	65535	32968	
4727	0	65535	32940	
4728	0	65535	32901	
4729	0	65535	32856	
4730	0	65535	32880	
4731	0	65535	32941	
4732	0	65535	32980	
4733	0	65535	33004	
4734	0	65535	33002	
4735	0	65535	33030	
4736	0	65535	33176	
4737	0	65535	33306	
4738	0	65535	33328	
4739	0	65535	33352	
4740	0	65535	33276	
4741	0	65535	33218	
4742	0	65535	33097	
4743	0	65535	33124	
4744	0	65535	33047	
4745	0	65535	32925	
4746	0	65535	32984	
4747	0	65535	32942	
4748	0	65535	32922	
4749	0	65535	32916	
4750	0	65535	32986	
4751	0	65535	32975	
4752	0	65535	32991	
4753	0	65535	32964	
4754	0	65535	32952	
4755	0	65535	32980	
4756	0	65535	32950	
4757	0	65535	32948	
4758	0	65535	32999	
4759	0	65535	33044	
4760	0	65535	33002	
4761	0	65535	33047	
4762	0	65535	33086	
4763	0	65535	33092	
4764	0	65535	33078	
4765	0	65535	33058	
4766	0	65535	32944	
4767	0	65535	32872	
4768	0	65535	32836	
4769	0	65535	32846	
4770	0	65535	32896	
4771	0	65535	32996	
4772	0	65535	33014	
4773	0	65535	33092	
4774	0	65535	33041	
4775	0	65535	33016	
4776	0	65535	33050	
4777	0	65535	32996	
4778	0	65535	32981	
4779	0	65535	32994	
4780	0	65535	32968	
4781	0	65535	32885	
4782	0	65535	32812	
4783	0	65535	32766	
4784	0	65535	32752	
4785	0	65535	32799	
4786	0	65535	32904	
4787	0	65535	32981	
4788	0	65535	32980	
4789	0	65535	32955	
4790	0	65535	32916	
4791	0	65535	32847	
4792	0	65535	32876	
4793	0	65535	32868	
4794	0	65535	32893	
4795	0	65535	32940	
4796	0	65535	33018	
4797	0	65535	33008	
4798	0	65535	33014	
4799	0	65535	32910	
4800	0	65535	32829	
4801	0	65535	32764	
4802	0	65535	32820	
4803	0	65535	32888	
4804	0	65535	32876	
4805	0	65535	32837	
4806	0	65535	32822	
4807	0	65535	32796	
4808	0	65535	32796	
4809	0	65535	32727	
4810	0	65535	32724	
4811	0	65535	32769	
4812	0	65535	32791	
4813	0	65535	32860	
4814	0	65535	32886	
4815	0	65535	32876	
4816	0	65535	32860	
4817	0	65535	32940	
4818	0	65535	32972	
4819	0	65535	32948	
4820	0	65535	32876	
4821	0	65535	32738	
4822	0	65535	32660	
4823	0	65535	32608	
4824	0	65535	32588	
4825	0	65535	32641	
4826	0	65535	32700	
4827	0	65535	32724	
4828	0	65535	32796	
4829	0	65535	32788	
4830	0	65535	32838	
4831	0	65535	32887	
4832	0	65535	32954	
4833	0	65535	32872	
4834	0	65535	32798	
4835	0	65535	32759	
4836	0	65535	32734	
4837	0	65535	32748	
4838	0	65535	32724	
4839	0	65535	32689	
4840	0	65535	32647	
4841	0	65535	32612	
4842	0	65535	32584	
4843	0	65535	32566	
4844	0	65535	32566	
4845	0	65535	32582	
4846	0	65535	32566	
4847	0	65535	32558	
4848	0	65535	32546	
4849	0	65535	32583	
4850	0	65535	32640	
4851	0	65535	32693	
4852	0	65535	32708	
4853	0	65535	32718	
4854	0	65535	32708	
4855	0	65535	32725	
4856	0	65535	32750	
4857	0	65535	32788	
4858	0	65535	32842	
4859	0	65535	32886	
4860	0	65535	32864	
4861	0	65535	32799	
4862	0	65535	32719	
4863	0	65535	32714	
4864	0	65535	32728	
4865	0	65535	32748	
4866	0	65535	32759	
4867	0	65535	32718	
4868	0	65535	32568	
4869	0	65535	32510	
4870	0	65535	32562	
4871	0	65535	32537	
4872	0	65535	32553	
4873	0	65535	32588	
4874	0	65535	32588	
4875	0	65535	32625	
4876	0	65535	32653	
4877	0	65535	32678	
4878	0	65535	32696	
4879	0	65535	32748	
4880	0	65535	32856	
4881	0	65535	32836	
4882	0	65535	32764	
4883	0	65535	32775	
4884	0	65535	32699	
4885	0	65535	32632	
4886	0	65535	32496	
4887	0	65535	32438	
4888	0	65535	32424	
4889	0	65535	32513	
4890	0	65535	32676	
4891	0	65535	32775	
4892	0	65535	32828	
4893	0	65535	32774	
4894	0	65535	32664	
4895	0	65535	32628	
4896	0	65535	32612	
4897	0	65535	32633	
4898	0	65535	32664	
4899	0	65535	32684	
4900	0	65535	32612	
4901	0	65535	32516	
4902	0	65535	32426	
4903	0	65535	32401	
4904	0	65535	32416	
4905	0	65535	32440	
4906	0	65535	32519	
4907	0	65535	32561	
4908	0	65535	32531	
4909	0	65535	32480	
4910	0	65535	32502	
4911	0	65535	32524	
4912	0	65535	32589	
4913	0	65535	32608	
4914	0	65535	32644	
4915	0	65535	32636	
4916	0	65535	32644	
4917	0	65535	32697	
4918	0	65535	32732	
4919	0	65535	32700	
4920	0	65535	32674	
4921	0	65535	32668	
4922	0	65535	32668	
4923	0	65535	32669	
4924	0	65535	32708	
4925	0	65535	32738	
4926	0	65535	32768	
4927	0	65535	32735	
4928	0	65535	32664	
4929	0	65535	32597	
4930	0	65535	32638	
4931	0	65535	32658	
4932	0	65535	32672	
4933	0	65535	32696	
4934	0	65535	32647	
4935	0	65535	32572	
4936	0	65535	32598	
4937	0	65535	32636	
4938	0	65535	32680	
4939	0	65535	32756	
4940	0	65535	32762	
4941	0	65535	32770	
4942	0	65535	32720	
4943	0	65535	32631	
4944	0	65535	32601	
4945	0	65535	32614	
4946	0	65535	32607	
4947	0	65535	32538	
4948	0	65535	32562	
4949	0	65535	32504	
4950	0	65535	32524	
4951	0	65535	32582	
4952	0	65535	32565	
4953	0	65535	32536	
4954	0	65535	32519	
4955	0	65535	32508	
4956	0	65535	32566	
4957	0	65535	32656	
4958	0	65535	32747	
4959	0	65535	32740	
4960	0	65535	32660	
4961	0	65535	32588	
4962	0	65535	32512	
4963	0	65535	32536	
4964	0	65535	32525	
4965	0	65535	32540	
4966	0	65535	32508	
4967	0	65535	32476	
4968	0	65535	32476	
4969	0	65535	32450	
4970	0	65535	32479	
4971	0	65535	32511	
4972	0	65535	32559	
4973	0	65535	32549	
4974	0	65535	32564	
4975	0	65535	32661	
4976	0	65535	32657	
4977	0	65535	32704	
4978	0	65535	32706	
4979	0	65535	32654	
4980	0	65535	32500	
4981	0	65535	32412	
4982	0	65535	32382	
4983	0	65535	32420	
4984	0	65535	32470	
4985	0	65535	32477	
4986	0	65535	32519	
4987	0	65535	32489	
4988	0	65535	32385	
4989	0	65535	32317	
4990	0	65535	32422	
4991	0	65535	32512	
4992	0	65535	32629	
4993	0	65535	32618	
4994	0	65535	32588	
4995	0	65535	32624	
4996	0	65535	32672	
4997	0	65535	32695	
4998	0	65535	32618	
4999	0	65535	32570	
5000	0	65535	32496	
5001	0	65535	32460	
5002	0	65535	32492	
5003	0	65535	32502	
5004	0	65535	32592	
5005	0	65535	32596	
5006	0	65535	32564	
5007	0	65535	32506	
5008	0	65535	32420	
5009	0	65535	32391	
5010	0	65535	32405	
5011	0	65535	32464	
5012	0	65535	32584	
5013	0	65535	32644	
5014	0	65535	32645	
5015	0	65535	32606	
5016	0	65535	32594	
5017	0	65535	32646	
5018	0	65535	32640	
5019	0	65535	32640	
5020	0	65535	32584	
5021	0	65535	32504	
5022	0	65535	32421	
5023	0	65535	32296	
5024	0	65535	32280	
5025	0	65535	32278	
5026	0	65535	32295	
5027	0	65535	32293	
5028	0	65535	32263	
5029	0	65535	32308	
5030	0	65535	32414	
5031	0	65535	32542	
5032	0	65535	32532	
5033	0	65535	32504	
5034	0	65535	32446	
5035	0	65535	32478	
5036	0	65535	32511	
5037	0	65535	32517	
5038	0	65535	32516	
5039	0	65535	32464	
5040	0	65535	32376	
5041	0	65535	32340	
5042	0	65535	32293	
5043	0	65535	32236	
5044	0	65535	32276	
5045	0	65535	32400	
5046	0	65535	32397	
5047	0	65535	32390	
5048	0	65535	32316	
5049	0	65535	32244	
5050	0	65535	32311	
5051	0	65535	32404	
5052	0	65535	32452	
5053	0	65535	32436	
5054	0	65535	32444	
5055	0	65535	32453	
5056	0	65535	32504	
5057	0	65535	32518	
5058	0	65535	32541	
5059	0	65535	32428	
5060	0	65535	32401	
5061	0	65535	32314	
5062	0	65535	32222	
5063	0	65535	32200	
5064	0	65535	32260	
5065	0	65535	32373	
5066	0	65535	32385	
5067	0	65535	32380	
5068	0	65535	32316	
5069	0	65535	32263	
5070	0	65535	32304	
5071	0	65535	32326	
5072	0	65535	32337	
5073	0	65535	32348	
5074	0	65535	32362	
5075	0	65535	32384	
5076	0	65535	32426	
5077	0	65535	32496	
5078	0	65535	32548	
5079	0	65535	32647	
5080	0	65535	32580	
5081	0	65535	32540	
5082	0	65535	32460	
5083	0	65535	32464	
5084	0	65535	32440	
5085	0	65535	32372	
5086	0	65535	32372	
5087	0	65535	32416	
5088	0	65535	32461	
5089	0	65535	32439	
5090	0	65535	32417	
5091	0	65535	32382	
5092	0	65535	32397	
5093	0	65535	32420	
5094	0	65535	32408	
5095	0	65535	32438	
5096	0	65535	32493	
5097	0	65535	32544	
5098	0	65535	32658	
5099	0	65535	32606	
5100	0	65535	32540	
5101	0	65535	32447	
5102	0	65535	32360	
5103	0	65535	32342	
5104	0	65535	32375	
5105	0	65535	32400	
5106	0	65535	32411	
5107	0	65535	32382	
5108	0	65535	32255	
5109	0	65535	32256	
5110	0	65535	32328	
5111	0	65535	32408	
5112	0	65535	32494	
5113	0	65535	32597	
5114	0	65535	32550	
5115	0	65535	32573	
5116	0	65535	32596	
5117	0	65535	32598	
5118	0	65535	32555	
5119	0	65535	32550	
5120	0	65535	32461	
5121	0	65535	32412	
5122	0	65535	32352	
5123	0	65535	32300	
5124	0	65535	32256	
5125	0	65535	32258	
5126	0	65535	32288	
5127	0	65535	32295	
5128	0	65535	32282	
5129	0	65535	32326	
5130	0	65535	32397	
5131	0	65535	32485	
5132	0	65535	32558	
5133	0	65535	32538	
5134	0	65535	32492	
5135	0	65535	32481	
5136	0	65535	32486	
5137	0	65535	32458	
5138	0	65535	32444	
5139	0	65535	32348	
5140	0	65535	32350	
5141	0	65535	32316	
5142	0	65535	32404	
5143	0	65535	32442	
5144	0	65535	32432	
5145	0	65535	32340	
5146	0	65535	32222	
5147	0	65535	32089	
5148	0	65535	32046	
5149	0	65535	32024	
5150	0	65535	32064	
5151	0	65535	32175	
5152	0	65535	32259	
5153	0	65535	32344	
5154	0	65535	32345	
5155	0	65535	32365	
5156	0	65535	32368	
5157	0	65535	32353	
5158	0	65535	32257	
5159	0	65535	32167	
5160	0	65535	32044	
5161	0	65535	31952	
5162	0	65535	31913	
5163	0	65535	31912	
5164	0	65535	31925	
5165	0	65535	31964	
5166	0	65535	31985	
5167	0	65535	32086	
5168	0	65535	32116	
5169	0	65535	32100	
5170	0	65535	32135	
5171	0	65535	32180	
5172	0	65535	32188	
5173	0	65535	32102	
5174	0	65535	32051	
5175	0	65535	32055	
5176	0	65535	31972	
5177	0	65535	31968	
5178	0	65535	31969	
5179	0	65535	31936	
5180	0	65535	31900	
5181	0	65535	31889	
5182	0	65535	31903	
5183	0	65535	31988	
5184	0	65535	32052	
5185	0	65535	32060	
5186	0	65535	31980	
5187	0	65535	31848	
5188	0	65535	31724	
5189	0	65535	31678	
5190	0	65535	31662	
5191	0	65535	31670	
5192	0	65535	31674	
5193	0	65535	31659	
5194	0	65535	31662	
5195	0	65535	31592	
5196	0	65535	31609	
5197	0	65535	31688	
5198	0	65535	31763	
5199	0	65535	31742	
5200	0	65535	31836	
5201	0	65535	31896	
5202	0	65535	31932	
5203	0	65535	31916	
5204	0	65535	31906	
5205	0	65535	31805	
5206	0	65535	31784	
5207	0	65535	31762	
5208	0	65535	31748	
5209	0	65535	31770	
5210	0	65535	31848	
5211	0	65535	31980	
5212	0	65535	32049	
5213	0	65535	32056	
5214	0	65535	32094	
5215	0	65535	32247	
5216	0	65535	32302	
5217	0	65535	32364	
5218	0	65535	32407	
5219	0	65535	32346	
5220	0	65535	32336	
5221	0	65535	32326	
5222	0	65535	32282	
5223	0	65535	32198	
5224	0	65535	32250	
5225	0	65535	32380	
5226	0	65535	32509	
5227	0	65535	32551	
5228	0	65535	32556	
5229	0	65535	32546	
5230	0	65535	32632	
5231	0	65535	32732	
5232	0	65535	32820	
5233	0	65535	32857	
5234	0	65535	32948	
5235	0	65535	33004	
5236	0	65535	33079	
5237	0	65535	33128	
5238	0	65535	33102	
5239	0	65535	33062	
5240	0	65535	32910	
5241	0	65535	32830	
5242	0	65535	32791	
5243	0	65535	32814	
5244	0	65535	32810	
5245	0	65535	32820	
5246	0	65535	32840	
5247	0	65535	32863	
5248	0	65535	32859	
5249	0	65535	32830	
5250	0	65535	32844	
5251	0	65535	32815	
5252	0	65535	32828	
5253	0	65535	32810	
5254	0	65535	32804	
5255	0	65535	32866	
5256	0	65535	32900	
5257	0	65535	32972	
5258	0	65535	32916	
5259	0	65535	32849	
5260	0	65535	32716	
5261	0	65535	32652	
5262	0	65535	32642	
5263	0	65535	32686	
5264	0	65535	32817	
5265	0	65535	32914	
5266	0	65535	32876	
5267	0	65535	32817	
5268	0	65535	32744	
5269	0	65535	32724	
5270	0	65535	32724	
5271	0	65535	32684	
5272	0	65535	32680	
5273	0	65535	32722	
5274	0	65535	32740	
5275	0	65535	32834	
5276	0	65535	32916	
5277	0	65535	32989	
5278	0	65535	33020	
5279	0	65535	32984	
5280	0	65535	32852	
5281	0	65535	32796	
5282	0	65535	32796	
5283	0	65535	32840	
5284	0	65535	32916	
5285	0	65535	32921	
5286	0	65535	32908	
5287	0	65535	32852	
5288	0	65535	32824	
5289	0	65535	32760	
5290	0	65535	32736	
5291	0	65535	32732	
5292	0	65535	32686	
5293	0	65535	32628	
5294	0	65535	32501	
5295	0	65535	32160	
5296	0	65535	31852	
5297	0	65535	31516	
5298	0	65535	31194	
5299	0	65535	30860	
5300	0	65535	30486	
5301	0	65535	30142	
5302	0	65535	29748	
5303	0	65535	29447	
5304	0	65535	29240	
5305	0	65535	29166	
5306	0	65535	29096	
5307	0	65535	29117	
5308	0	65535	28975	
5309	0	65535	28788	
5310	0	65535	28626	
5311	0	65535	28533	
5312	0	65535	28416	
5313	0	65535	28156	
5314	0	65535	27832	
5315	0	65535	27527	
5316	0	65535	27292	
5317	0	65535	27175	
5318	0	65535	27362	
5319	0	65535	27884	
5320	0	65535	28572	
5321	0	65535	29470	
5322	0	65535	30604	
5323	0	65535	31794	
5324	0	65535	32856	
5325	0	65535	33765	
5326	0	65535	34668	
5327	0	65535	35332	
5328	0	65535	35896	
5329	0	65535	36463	
5330	0	65535	36916	
5331	0	65535	37191	
5332	0	65535	37330	
5333	0	65535	37500	
5334	0	65535	37740	
5335	0	65535	37988	
5336	0	65535	38040	
5337	0	65535	38161	
5338	0	65535	38252	
5339	0	65535	38252	
5340	0	65535	38143	
5341	0	65535	38005	
5342	0	65535	37767	
5343	0	65535	37592	
5344	0	65535	37444	
5345	0	65535	37230	
5346	0	65535	37026	
5347	0	65535	36743	
5348	0	65535	36370	
5349	0	65535	36061	
5350	0	65535	35750	
5351	0	65535	35456	
5352	0	65535	35143	
5353	0	65535	34800	
5354	0	65535	34501	
5355	0	65535	34255	
5356	0	65535	33956	
5357	0	65535	33790	
5358	0	65535	33580	
5359	0	65535	33320	
5360	0	65535	33120	
5361	0	65535	32919	
5362	0	65535	32743	
5363	0	65535	32532	
5364	0	65535	32480	
5365	0	65535	32429	
5366	0	65535	32348	
5367	0	65535	32260	
5368	0	65535	32249	
5369	0	65535	32258	
5370	0	65535	32322	
5371	0	65535	32392	
5372	0	65535	32406	
5373	0	65535	32369	
5374	0	65535	32412	
5375	0	65535	32455	
5376	0	65535	32454	
5377	0	65535	32474	
5378	0	65535	32456	
5379	0	65535	32399	
5380	0	65535	32333	
5381	0	65535	32239	
5382	0	65535	32159	
5383	0	65535	32070	
5384	0	65535	32028	
5385	0	65535	31976	
5386	0	65535	31940	
5387	0	65535	31896	
5388	0	65535	31886	
5389	0	65535	31929	
5390	0	65535	32004	
5391	0	65535	32144	
5392	0	65535	32194	
5393	0	65535	32207	
5394	0	65535	32168	
5395	0	65535	32142	
5396	0	65535	32183	
5397	0	65535	32132	
5398	0	65535	32131	
5399	0	65535	32154	
5400	0	65535	32138	
5401	0	65535	32124	
5402	0	65535	32060	
5403	0	65535	32040	
5404	0	65535	32026	
5405	0	65535	32052	
5406	0	65535	32073	
5407	0	65535	32037	
5408	0	65535	31966	
5409	0	65535	31838	
5410	0	65535	31836	
5411	0	65535	31876	
5412	0	65535	31932	
5413	0	65535	31960	
5414	0	65535	31908	
5415	0	65535	31857	
5416	0	65535	31876	
5417	0	65535	31951	
5418	0	65535	32004	
5419	0	65535	32016	
5420	0	65535	31973	
5421	0	65535	31898	
5422	0	65535	31846	
5423	0	65535	31768	
5424	0	65535	31708	
5425	0	65535	31710	
5426	0	65535	31729	
5427	0	65535	31702	
5428	0	65535	31663	
5429	0	65535	31656	
5430	0	65535	31676	
5431	0	65535	31702	
5432	0	65535	31769	
5433	0	65535	31788	
5434	0	65535	31821	
5435	0	65535	31810	
5436	0	65535	31820	
5437	0	65535	31943	
5438	0	65535	31957	
5439	0	65535	31972	
5440	0	65535	31957	
5441	0	65535	31905	
5442	0	65535	31896	
5443	0	65535	31892	
5444	0	65535	31876	
5445	0	65535	31893	
5446	0	65535	31852	
5447	0	65535	31809	
5448	0	65535	31751	
5449	0	65535	31761	
5450	0	65535	31824	
5451	0	65535	31825	
5452	0	65535	31879	
5453	0	65535	31804	
5454	0	65535	31744	
5455	0	65535	31764	
5456	0	65535	31788	
5457	0	65535	31828	
5458	0	65535	31839	
5459	0	65535	31844	
5460	0	65535	31792	
5461	0	65535	31718	
5462	0	65535	31670	
5463	0	65535	31638	
5464	0	65535	31644	
5465	0	65535	31704	
5466	0	65535	31688	
5467	0	65535	31655	
5468	0	65535	31678	
5469	0	65535	31734	
5470	0	65535	31732	
5471	0	65535	31678	
5472	0	65535	31727	
5473	0	65535	31665	
5474	0	65535	31684	
5475	0	65535	31780	
5476	0	65535	31751	
5477	0	65535	31661	
5478	0	65535	31638	
5479	0	65535	31637	
5480	0	65535	31679	
5481	0	65535	31568	
5482	0	65535	31532	
5483	0	65535	31495	
5484	0	65535	31495	
5485	0	65535	31484	
5486	0	65535	31429	
5487	0	65535	31338	
5488	0	65535	31288	
5489	0	65535	31363	
5490	0	65535	31428	
5491	0	65535	31450	
5492	0	65535	31388	
5493	0	65535	31332	
5494	0	65535	31296	
5495	0	65535	31262	
5496	0	65535	31259	
5497	0	65535	31238	
5498	0	65535	31261	
5499	0	65535	31176	
5500	0	65535	31077	
5501	0	65535	30938	
5502	0	65535	30882	
5503	0	65535	30832	
5504	0	65535	30790	
5505	0	65535	30800	
5506	0	65535	30796	
5507	0	65535	30791	
5508	0	65535	30798	
5509	0	65535	30784	
5510	0	65535	30746	
5511	0	65535	30711	
5512	0	65535	30700	
5513	0	65535	30726	
5514	0	65535	30760	
5515	0	65535	30727	
5516	0	65535	30712	
5517	0	65535	30700	
5518	0	65535	30673	
5519	0	65535	30568	
5520	0	65535	30452	
5521	0	65535	30389	
5522	0	65535	30311	
5523	0	65535	30250	
5524	0	65535	30244	
5525	0	65535	30178	
5526	0	65535	30072	
5527	0	65535	30012	
5528	0	65535	30005	
5529	0	65535	30023	
5530	0	65535	30031	
5531	0	65535	30008	
5532	0	65535	29976	
5533	0	65535	29962	
5534	0	65535	29904	
5535	0	65535	29850	
5536	0	65535	29824	
5537	0	65535	29813	
5538	0	65535	29820	
5539	0	65535	29824	
5540	0	65535	29797	
5541	0	65535	29744	
5542	0	65535	29672	
5543	0	65535	29612	
5544	0	65535	29592	
5545	0	65535	29568	
5546	0	65535	29548	
5547	0	65535	29480	
5548	0	65535	29410	
5549	0	65535	29412	
5550	0	65535	29474	
5551	0	65535	29521	
5552	0	65535	29608	
5553	0	65535	29716	
5554	0	65535	29718	
5555	0	65535	29703	
5556	0	65535	29740	
5557	0	65535	29797	
5558	0	65535	29844	
5559	0	65535	29838	
5560	0	65535	29772	
5561	0	65535	29736	
5562	0	65535	29703	
5563	0	65535	29736	
5564	0	65535	29799	
5565	0	65535	29846	
5566	0	65535	29882	
5567	0	65535	29796	
5568	0	65535	29756	
5569	0	65535	29813	
5570	0	65535	29900	
5571	0	65535	29974	
5572	0	65535	30032	
5573	0	65535	30044	
5574	0	65535	30084	
5575	0	65535	30149	
5576	0	65535	30215	
5577	0	65535	30290	
5578	0	65535	30374	
5579	0	65535	30519	
5580	0	65535	30655	
5581	0	65535	30760	
5582	0	65535	30872	
5583	0	65535	30916	
5584	0	65535	31000	
5585	0	65535	31077	
5586	0	65535	31156	
5587	0	65535	31217	
5588	0	65535	31312	
5589	0	65535	31338	
5590	0	65535	31473	
5591	0	65535	31639	
5592	0	65535	31804	
5593	0	65535	31934	
5594	0	65535	32056	
5595	0	65535	32186	
5596	0	65535	32361	
5597	0	65535	32480	
5598	0	65535	32600	
5599	0	65535	32714	
5600	0	65535	32761	
5601	0	65535	32775	
5602	0	65535	32848	
5603	0	65535	32942	
5604	0	65535	33037	
5605	0	65535	33107	
5606	0	65535	33191	
5607	0	65535	33277	
5608	0	65535	33426	
5609	0	65535	33480	
5610	0	65535	33592	
5611	0	65535	33836	
5612	0	65535	34044	
5613	0	65535	34087	
5614	0	65535	34160	
5615	0	65535	34196	
5616	0	65535	34268	
5617	0	65535	34334	
5618	0	65535	34332	
5619	0	65535	34330	
5620	0	65535	34310	
5621	0	65535	34292	
5622	0	65535	34305	
5623	0	65535	34361	
5624	0	65535	34468	
5625	0	65535	34513	
5626	0	65535	34600	
5627	0	65535	34620	
5628	0	65535	34562	
5629	0	65535	34523	
5630	0	65535	34500	
5631	0	65535	34566	
5632	0	65535	34668	
5633	0	65535	34817	
5634	0	65535	34951	
5635	0	65535	34951	
5636	0	65535	34999	
5637	0	65535	35064	
5638	0	65535	35068	
5639	0	65535	34996	
5640	0	65535	34892	
5641	0	65535	34823	
5642	0	65535	34823	
5643	0	65535	34852	
5644	0	65535	34838	
5645	0	65535	34788	
5646	0	65535	34804	
5647	0	65535	34816	
5648	0	65535	34812	
5649	0	65535	34815	
5650	0	65535	34806	
5651	0	65535	34820	
5652	0	65535	34838	
5653	0	65535	34831	
5654	0	65535	34764	
5655	0	65535	34765	
5656	0	65535	34800	
5657	0	65535	34840	
5658	0	65535	34924	
5659	0	65535	34974	
5660	0	65535	34942	
5661	0	65535	34924	
5662	0	65535	34816	
5663	0	65535	34768	
5664	0	65535	34796	
5665	0	65535	34796	
5666	0	65535	34813	
5667	0	65535	34809	
5668	0	65535	34755	
5669	0	65535	34664	
5670	0	65535	34656	
5671	0	65535	34676	
5672	0	65535	34630	
5673	0	65535	34608	
5674	0	65535	34589	
5675	0	65535	34580	
5676	0	65535	34576	
5677	0	65535	34604	
5678	0	65535	34620	
5679	0	65535	34591	
5680	0	65535	34556	
5681	0	65535	34564	
5682	0	65535	34548	
5683	0	65535	34541	
5684	0	65535	34532	
5685	0	65535	34526	
5686	0	65535	34532	
5687	0	65535	34503	
5688	0	65535	34481	
5689	0	65535	34436	
5690	0	65535	34460	
5691	0	65535	34516	
5692	0	65535	34567	
5693	0	65535	34537	
5694	0	65535	34442	
5695	0	65535	34365	
5696	0	65535	34311	
5697	0	65535	34302	
5698	0	65535	34330	
5699	0	65535	34269	
5700	0	65535	34172	
5701	0	65535	34119	
5702	0	65535	34036	
5703	0	65535	34069	
5704	0	65535	34105	
5705	0	65535	34132	
5706	0	65535	34102	
5707	0	65535	34065	
5708	0	65535	34060	
5709	0	65535	34024	
5710	0	65535	34030	
5711	0	65535	34049	
5712	0	65535	34100	
5713	0	65535	34148	
5714	0	65535	34183	
5715	0	65535	34208	
5716	0	65535	34248	
5717	0	65535	34345	
5718	0	65535	34348	
5719	0	65535	34263	
5720	0	65535	34126	
5721	0	65535	34039	
5722	0	65535	33993	
5723	0	65535	33932	
5724	0	65535	33922	
5725	0	65535	33880	
5726	0	65535	33806	
5727	0	65535	33764	
5728	0	65535	33732	
5729	0	65535	33736	
5730	0	65535	33799	
5731	0	65535	33868	
5732	0	65535	33876	
5733	0	65535	33836	
5734	0	65535	33783	
5735	0	65535	33799	
5736	0	65535	33854	
5737	0	65535	33944	
5738	0	65535	34028	
5739	0	65535	34022	
5740	0	65535	33934	
5741	0	65535	33874	
5742	0	65535	33781	
5743	0	65535	33684	
5744	0	65535	33668	
5745	0	65535	33615	
5746	0	65535	33571	
5747	0	65535	33530	
5748	0	65535	33492	
5749	0	65535	33510	
5750	0	65535	33584	
5751	0	65535	33692	
5752	0	65535	33772	
5753	0	65535	33796	
5754	0	65535	33790	
5755	0	65535	33761	
5756	0	65535	33780	
5757	0	65535	33813	
5758	0	65535	33799	
5759	0	65535	33777	
5760	0	65535	33718	
5761	0	65535	33630	
5762	0	65535	33556	
5763	0	65535	33522	
5764	0	65535	33606	
5765	0	65535	33656	
5766	0	65535	33676	
5767	0	65535	33593	
5768	0	65535	33493	
5769	0	65535	33451	
5770	0	65535	33423	
5771	0	65535	33468	
5772	0	65535	33514	
5773	0	65535	33533	
5774	0	65535	33582	
5775	0	65535	33648	
5776	0	65535	33697	
5777	0	65535	33737	
5778	0	65535	33728	
5779	0	65535	33701	
5780	0	65535	33629	
5781	0	65535	33583	
5782	0	65535	33543	
5783	0	65535	33536	
5784	0	65535	33492	
5785	0	65535	33478	
5786	0	65535	33456	
5787	0	65535	33404	
5788	0	65535	33354	
5789	0	65535	33342	
5790	0	65535	33384	
5791	0	65535	33348	
5792	0	65535	33344	
5793	0	65535	33351	
5794	0	65535	33364	
5795	0	65535	33331	
5796	0	65535	33336	
5797	0	65535	33364	
5798	0	65535	33411	
5799	0	65535	33375	
5800	0	65535	33380	
5801	0	65535	33381	
5802	0	65535	33342	
5803	0	65535	33302	
5804	0	65535	33287	
5805	0	65535	33316	
5806	0	65535	33236	
5807	0	65535	33208	
5808	0	65535	33212	
5809	0	65535	33278	
5810	0	65535	33368	
5811	0	65535	33420	
5812	0	65535	33388	
5813	0	65535	33397	
5814	0	65535	33325	
5815	0	65535	33287	
5816	0	65535	33274	
5817	0	65535	33333	
5818	0	65535	33454	
5819	0	65535	33508	
5820	0	65535	33379	
5821	0	65535	33234	
5822	0	65535	33196	
5823	0	65535	33231	
5824	0	65535	33279	
5825	0	65535	33322	
5826	0	65535	33300	
5827	0	65535	33229	
5828	0	65535	33188	
5829	0	65535	33144	
5830	0	65535	33153	
5831	0	65535	33154	
5832	0	65535	33171	
5833	0	65535	33300	
5834	0	65535	33392	
5835	0	65535	33412	
5836	0	65535	33430	
5837	0	65535	33415	
5838	0	65535	33324	
5839	0	65535	33279	
5840	0	65535	33184	
5841	0	65535	33124	
5842	0	65535	33176	
5843	0	65535	33216	
5844	0	65535	33149	
5845	0	65535	33052	
5846	0	65535	33022	
5847	0	65535	33023	
5848	0	65535	33204	
5849	0	65535	33236	
5850	0	65535	33234	
5851	0	65535	33261	
5852	0	65535	33224	
5853	0	65535	33224	
5854	0	65535	33238	
5855	0	65535	33296	
5856	0	65535	33328	
5857	0	65535	33425	
5858	0	65535	33466	
5859	0	65535	33396	
5860	0	65535	33268	
5861	0	65535	33148	
5862	0	65535	33018	
5863	0	65535	33000	
5864	0	65535	32994	
5865	0	65535	32943	
5866	0	65535	32935	
5867	0	65535	32936	
5868	0	65535	32976	
5869	0	65535	33079	
5870	0	65535	33240	
5871	0	65535	33318	
5872	0	65535	33230	
5873	0	65535	33172	
5874	0	65535	33102	
5875	0	65535	33040	
5876	0	65535	33072	
5877	0	65535	33166	
5878	0	65535	33256	
5879	0	65535	33188	
5880	0	65535	33091	
5881	0	65535	32960	
5882	0	65535	32927	
5883	0	65535	32878	
5884	0	65535	32910	
5885	0	65535	33001	
5886	0	65535	33076	
5887	0	65535	33056	
5888	0	65535	32961	
5889	0	65535	32864	
5890	0	65535	32902	
5891	0	65535	32940	
5892	0	65535	33010	
5893	0	65535	33060	
5894	0	65535	33084	
5895	0	65535	33094	
5896	0	65535	33162	
5897	0	65535	33144	
5898	0	65535	33118	
5899	0	65535	33013	
5900	0	65535	32969	
5901	0	65535	32908	
5902	0	65535	33004	
5903	0	65535	33100	
5904	0	65535	33113	
5905	0	65535	33056	
5906	0	65535	32980	
5907	0	65535	32888	
5908	0	65535	32869	
5909	0	65535	32918	
5910	0	65535	33063	
5911	0	65535	33100	
5912	0	65535	33137	
5913	0	65535	33092	
5914	0	65535	32992	
5915	0	65535	32952	
5916	0	65535	32942	
5917	0	65535	32853	
5918	0	65535	32884	
5919	0	65535	32900	
5920	0	65535	32992	
5921	0	65535	33010	
5922	0	65535	32996	
5923	0	65535	32996	
5924	0	65535	32982	
5925	0	65535	32974	
5926	0	65535	32948	
5927	0	65535	32884	
5928	0	65535	32882	
5929	0	65535	32940	
5930	0	65535	32922	
5931	0	65535	32880	
5932	0	65535	32916	
5933	0	65535	32903	
5934	0	65535	32858	
5935	0	65535	32921	
5936	0	65535	33076	
5937	0	65535	33140	
5938	0	65535	33088	
5939	0	65535	32972	
5940	0	65535	32902	
5941	0	65535	32853	
5942	0	65535	32782	
5943	0	65535	32751	
5944	0	65535	32732	
5945	0	65535	32721	
5946	0	65535	32700	
5947	0	65535	32673	
5948	0	65535	32764	
5949	0	65535	32772	
5950	0	65535	32868	
5951	0	65535	32856	
5952	0	65535	32882	
5953	0	65535	32834	
5954	0	65535	32860	
5955	0	65535	32871	
5956	0	65535	32884	
5957	0	65535	32956	
5958	0	65535	33080	
5959	0	65535	33100	
5960	0	65535	33020	
5961	0	65535	32906	
5962	0	65535	32868	
5963	0	65535	32872	
5964	0	65535	32830	
5965	0	65535	32808	
5966	0	65535	32785	
5967	0	65535	32740	
5968	0	65535	32744	
5969	0	65535	32687	
5970	0	65535	32709	
5971	0	65535	32774	
5972	0	65535	32848	
5973	0	65535	32857	
5974	0	65535	32841	
5975	0	65535	32856	
5976	0	65535	32889	
5977	0	65535	32940	
5978	0	65535	33002	
5979	0	65535	33049	
5980	0	65535	33022	
5981	0	65535	32945	
5982	0	65535	32912	
5983	0	65535	32879	
5984	0	65535	32876	
5985	0	65535	32884	
5986	0	65535	32946	
5987	0	65535	32879	
5988	0	65535	32818	
5989	0	65535	32752	
5990	0	65535	32798	
5991	0	65535	32775	
5992	0	65535	32811	
5993	0	65535	32809	
5994	0	65535	32792	
5995	0	65535	32774	
5996	0	65535	32788	
5997	0	65535	32746	
5998	0	65535	32772	
5999	0	65535	32818	
6000	0	65535	32836	
6001	0	65535	32790	
6002	0	65535	32775	
6003	0	65535	32773	
6004	0	65535	32775	
6005	0	65535	32751	
6006	0	65535	32772	
6007	0	65535	32711	
6008	0	65535	32716	
6009	0	65535	32720	
6010	0	65535	32750	
6011	0	65535	32858	
6012	0	65535	32956	
