# OpenSignals Text File Format. Version 1
# {"00:07:80:0F:31:9C": {"position": 0, "device": "biosignalsplux", "device name": "00:07:80:0F:31:9C", "device connection": "00:07:80:0F:31:9C", "sampling rate": 200, "resolution": [16, 16], "firmware version": 775, "comments": "", "keywords": "", "mode": 0, "sync interval": 2, "date": "2026-6-4", "time": "16:2:28.876", "channels": [1, 2], "sensor": ["EDA", "ECG"], "label": ["CH1", "CH2"], "column": ["nSeq", "DI", "CH1", "CH2"], "special": [{"SpO2": [80, 40, 5, 4, 3, 3]}, {"SpO2": [80, 40, 5, 4, 3, 3]}, {"SpO2": [80, 40, 5, 4, 3, 3]}, {"SpO2": [80, 40, 5, 4, 3, 3]}, {"SpO2": [80, 40, 5, 4, 3, 3]}, {"SpO2": [80, 40, 5, 4, 3, 3]}, {"SpO2": [80, 40, 5, 4, 3, 3]}, {"SpO2": [80, 40, 5, 4, 3, 3]}], "digital IO": [0, 1], "sleeve color": ["red", "dark_blue"], "convertedValues": 0}}
# EndOfHeader
0	0	12988	35185	
1	0	12985	34033	
2	0	12982	33769	
3	0	12977	33864	
4	0	12984	33716	
5	0	12984	33598	
6	0	12976	33408	
7	0	12974	33657	
8	0	12982	33471	
9	0	12982	33489	
10	0	12976	33268	
11	0	12972	33270	
12	0	12977	33167	
13	0	12980	33140	
14	0	12974	32962	
15	0	12972	33031	
16	0	12978	33071	
17	0	12976	32983	
18	0	12968	32751	
19	0	12972	32664	
20	0	12978	32612	
21	0	12978	32573	
22	0	12968	32478	
23	0	12968	32345	
24	0	12976	32273	
25	0	12974	32276	
26	0	12969	32150	
27	0	12970	32026	
28	0	12974	31926	
29	0	12972	31664	
30	0	12972	31684	
31	0	12964	31546	
32	0	12976	31253	
33	0	12978	31205	
34	0	12964	30941	
35	0	12964	30657	
36	0	12969	30423	
37	0	12978	30198	
38	0	12964	29796	
39	0	12965	29780	
40	0	12972	29658	
41	0	12973	29703	
42	0	12964	29648	
43	0	12964	29629	
44	0	12966	29700	
45	0	12972	29850	
46	0	12964	29942	
47	0	12962	30494	
48	0	12968	30968	
49	0	12972	31490	
50	0	12964	31966	
51	0	12962	32661	
52	0	12968	33228	
53	0	12968	33718	
54	0	12962	33935	
55	0	12964	34392	
56	0	12968	34695	
57	0	12970	34708	
58	0	12962	34813	
59	0	12961	34848	
60	0	12966	34820	
61	0	12968	34822	
62	0	12958	34929	
63	0	12958	34927	
64	0	12964	34735	
65	0	12965	34559	
66	0	12958	34520	
67	0	12958	34328	
68	0	12962	34269	
69	0	12968	34236	
70	0	12954	33959	
71	0	12956	33972	
72	0	12964	33905	
73	0	12965	33927	
74	0	12956	33720	
75	0	12954	33748	
76	0	12960	33700	
77	0	12962	33716	
78	0	12956	33492	
79	0	12952	33636	
80	0	12956	33684	
81	0	12965	33474	
82	0	12954	33321	
83	0	12950	33445	
84	0	12961	33351	
85	0	12964	33319	
86	0	12954	33286	
87	0	12956	33533	
88	0	12957	33500	
89	0	12958	33524	
90	0	12949	33307	
91	0	12952	33464	
92	0	12956	33451	
93	0	12960	33394	
94	0	12953	33341	
95	0	12952	33344	
96	0	12954	33260	
97	0	12954	33401	
98	0	12952	33262	
99	0	12948	33356	
100	0	12956	33391	
101	0	12952	33287	
102	0	12948	33253	
103	0	12948	33208	
104	0	12956	33192	
105	0	12960	33060	
106	0	12948	33072	
107	0	12948	33093	
108	0	12954	33100	
109	0	12956	33146	
110	0	12948	33034	
111	0	12945	32894	
112	0	12952	32974	
113	0	12953	32921	
114	0	12945	32943	
115	0	12946	33098	
116	0	12952	33052	
117	0	12952	32954	
118	0	12943	32869	
119	0	12940	33031	
120	0	12949	32903	
121	0	12952	32812	
122	0	12942	32715	
123	0	12944	32542	
124	0	12949	32468	
125	0	12950	32145	
126	0	12942	32166	
127	0	12944	32263	
128	0	12949	32293	
129	0	12952	32070	
130	0	12942	31788	
131	0	12944	31600	
132	0	12954	31634	
133	0	12948	31264	
134	0	12944	31548	
135	0	12946	31940	
136	0	12948	32316	
137	0	12954	32293	
138	0	12944	32482	
139	0	12939	32799	
140	0	12945	33084	
141	0	12948	33340	
142	0	12940	33496	
143	0	12942	33473	
144	0	12945	33476	
145	0	12952	33460	
146	0	12936	33393	
147	0	12936	33470	
148	0	12942	33504	
149	0	12944	33367	
150	0	12934	33404	
151	0	12934	33359	
152	0	12944	33246	
153	0	12945	32720	
154	0	12936	31588	
155	0	12940	31014	
156	0	12944	29572	
157	0	12949	28408	
158	0	12947	28068	
159	0	12948	26544	
160	0	12953	26356	
161	0	12956	28466	
162	0	12944	30141	
163	0	12938	33598	
164	0	12940	36469	
165	0	12944	37383	
166	0	12935	36152	
167	0	12936	34662	
168	0	12940	33820	
169	0	12940	33724	
170	0	12930	33722	
171	0	12933	33625	
172	0	12938	33764	
173	0	12940	33572	
174	0	12929	33440	
175	0	12932	33350	
176	0	12936	33187	
177	0	12940	33006	
178	0	12934	33076	
179	0	12932	33233	
180	0	12936	32999	
181	0	12940	33159	
182	0	12924	33015	
183	0	12928	32848	
184	0	12936	32945	
185	0	12938	32806	
186	0	12933	32581	
187	0	12930	32597	
188	0	12933	32349	
189	0	12936	32414	
190	0	12928	32514	
191	0	12930	32324	
192	0	12936	32317	
193	0	12936	32084	
194	0	12928	31836	
195	0	12932	31678	
196	0	12932	31652	
197	0	12933	31513	
198	0	12928	31288	
199	0	12927	31045	
200	0	12932	30932	
201	0	12936	30676	
202	0	12926	30368	
203	0	12928	30190	
204	0	12932	30278	
205	0	12934	29903	
206	0	12925	29553	
207	0	12924	29512	
208	0	12930	29495	
209	0	12933	29639	
210	0	12925	29504	
211	0	12924	29804	
212	0	12928	29688	
213	0	12933	29652	
214	0	12924	30214	
215	0	12924	30897	
216	0	12930	31570	
217	0	12925	32180	
218	0	12922	32746	
219	0	12921	33412	
220	0	12929	33817	
221	0	12924	34143	
222	0	12917	34421	
223	0	12920	34510	
224	0	12928	34852	
225	0	12928	34690	
226	0	12917	34628	
227	0	12920	34901	
228	0	12924	34876	
229	0	12928	34743	
230	0	12915	34608	
231	0	12918	34445	
232	0	12922	34377	
233	0	12922	34213	
234	0	12920	33774	
235	0	12920	34344	
236	0	12921	34357	
237	0	12928	34134	
238	0	12913	34222	
239	0	12916	34165	
240	0	12928	34583	
241	0	12928	34204	
242	0	12913	34020	
243	0	12918	33972	
244	0	12920	33996	
245	0	12922	33876	
246	0	12917	33799	
247	0	12912	33789	
248	0	12924	33774	
249	0	12922	33790	
250	0	12914	33425	
251	0	12912	33060	
252	0	12917	33100	
253	0	12916	33510	
254	0	12908	34265	
255	0	12910	34254	
256	0	12912	34076	
257	0	12916	33828	
258	0	12904	33799	
259	0	12908	33799	
260	0	12913	33873	
261	0	12906	33653	
262	0	12904	33711	
263	0	12900	33684	
264	0	12911	33671	
265	0	12909	33734	
266	0	12904	33524	
267	0	12906	33561	
268	0	12908	33671	
269	0	12909	33466	
270	0	12900	33511	
271	0	12904	33576	
272	0	12907	33396	
273	0	12904	33330	
274	0	12896	33058	
275	0	12902	33009	
276	0	12902	32807	
277	0	12901	32794	
278	0	12893	32972	
279	0	12896	33194	
280	0	12904	33156	
281	0	12906	33167	
282	0	12890	33188	
283	0	12896	33239	
284	0	12902	33108	
285	0	12906	33157	
286	0	12892	33090	
287	0	12900	32924	
288	0	12908	32748	
289	0	12904	32830	
290	0	12898	33056	
291	0	12900	32804	
292	0	12905	32767	
293	0	12912	33008	
294	0	12900	32616	
295	0	12901	32447	
296	0	12911	32380	
297	0	12908	32618	
298	0	12897	32912	
299	0	12904	32413	
300	0	12912	31886	
301	0	12912	31764	
302	0	12898	32974	
303	0	12904	32658	
304	0	12904	31840	
305	0	12908	31298	
306	0	12896	31564	
307	0	12900	32692	
308	0	12903	32401	
309	0	12901	33122	
310	0	12894	33543	
311	0	12900	32228	
312	0	12900	33449	
313	0	12904	34137	
314	0	12892	32642	
315	0	12896	33858	
316	0	12901	34252	
317	0	12898	34852	
318	0	12890	35377	
319	0	12893	35074	
320	0	12898	36252	
321	0	12896	34576	
322	0	12892	31430	
323	0	12894	31133	
324	0	12900	29229	
325	0	12900	29760	
326	0	12892	30544	
327	0	12897	27681	
328	0	12908	27480	
329	0	12912	25722	
330	0	12908	25229	
331	0	12912	26880	
332	0	12921	27856	
333	0	12910	31917	
334	0	12894	35785	
335	0	12896	36516	
336	0	12900	35415	
337	0	12902	35434	
338	0	12897	34188	
339	0	12894	33400	
340	0	12900	32138	
341	0	12896	32983	
342	0	12888	32945	
343	0	12894	33438	
344	0	12900	33542	
345	0	12896	33861	
346	0	12892	34951	
347	0	12892	33356	
348	0	12900	30674	
349	0	12894	31784	
350	0	12892	31734	
351	0	12894	31879	
352	0	12898	31669	
353	0	12898	31700	
354	0	12892	31526	
355	0	12895	31525	
356	0	12898	30924	
357	0	12900	30368	
358	0	12890	29924	
359	0	12890	30798	
360	0	12896	32282	
361	0	12894	33941	
362	0	12882	35658	
363	0	12890	36103	
364	0	12897	34662	
365	0	12896	33726	
366	0	12888	35218	
367	0	12888	35323	
368	0	12896	33876	
369	0	12896	31076	
370	0	12892	30057	
371	0	12892	30055	
372	0	12900	29048	
373	0	12898	28276	
374	0	12888	27764	
375	0	12892	27073	
376	0	12900	26236	
377	0	12898	26148	
378	0	12884	28118	
379	0	12884	31852	
380	0	12896	32357	
381	0	12898	31305	
382	0	12884	30540	
383	0	12885	31233	
384	0	12892	32548	
385	0	12892	33854	
386	0	12880	34756	
387	0	12887	35112	
388	0	12892	34694	
389	0	12888	33845	
390	0	12885	31042	
391	0	12896	27088	
392	0	12888	26066	
393	0	12886	30177	
394	0	12876	33722	
395	0	12880	35697	
396	0	12889	35696	
397	0	12887	35524	
398	0	12881	35005	
399	0	12880	36260	
400	0	12892	36777	
401	0	12888	36089	
402	0	12884	36087	
403	0	12884	34951	
404	0	12888	35356	
405	0	12884	34703	
406	0	12880	34044	
407	0	12878	34408	
408	0	12888	33208	
409	0	12891	32216	
410	0	12878	31230	
411	0	12882	33982	
412	0	12896	35262	
413	0	12892	32977	
414	0	12882	29936	
415	0	12884	28632	
416	0	12889	32684	
417	0	12884	37716	
418	0	12882	36991	
419	0	12880	35060	
420	0	12892	34799	
421	0	12896	34348	
422	0	12884	34037	
423	0	12884	33840	
424	0	12893	33936	
425	0	12890	33525	
426	0	12882	32512	
427	0	12888	31940	
428	0	12892	31228	
429	0	12886	32601	
430	0	12884	31692	
431	0	12882	29873	
432	0	12888	32708	
433	0	12892	32489	
434	0	12881	29906	
435	0	12880	30659	
436	0	12885	36410	
437	0	12886	37473	
438	0	12877	35352	
439	0	12880	35235	
440	0	12886	35804	
441	0	12886	33493	
442	0	12880	32045	
443	0	12888	32910	
444	0	12892	31460	
445	0	12888	32184	
446	0	12880	32536	
447	0	12881	32961	
448	0	12888	32868	
449	0	12888	32831	
450	0	12876	32942	
451	0	12884	32220	
452	0	12892	30702	
453	0	12885	30869	
454	0	12878	33613	
455	0	12877	36081	
456	0	12884	34690	
457	0	12886	33332	
458	0	12880	28365	
459	0	12884	28685	
460	0	12884	35029	
461	0	12885	35235	
462	0	12876	33908	
463	0	12882	33316	
464	0	12884	33338	
465	0	12885	33104	
466	0	12878	33287	
467	0	12876	32802	
468	0	12888	32148	
469	0	12888	29882	
470	0	12872	32525	
471	0	12880	31495	
472	0	12888	27664	
473	0	12880	28754	
474	0	12870	35518	
475	0	12878	36585	
476	0	12888	34636	
477	0	12884	34184	
478	0	12870	34008	
479	0	12878	34344	
480	0	12884	33740	
481	0	12881	32730	
482	0	12878	32698	
483	0	12874	33113	
484	0	12884	33301	
485	0	12880	32040	
486	0	12876	30332	
487	0	12877	31150	
488	0	12880	30182	
489	0	12884	27624	
490	0	12872	28032	
491	0	12882	28404	
492	0	12896	27422	
493	0	12893	28778	
494	0	12890	29210	
495	0	12904	30636	
496	0	12896	30470	
497	0	12886	33849	
498	0	12876	34848	
499	0	12880	34865	
500	0	12884	33860	
501	0	12880	32186	
502	0	12874	33111	
503	0	12874	33948	
504	0	12880	33082	
505	0	12880	31764	
506	0	12868	32301	
507	0	12872	32942	
508	0	12877	34256	
509	0	12872	33002	
510	0	12864	33670	
511	0	12869	34782	
512	0	12876	35806	
513	0	12873	33408	
514	0	12864	32840	
515	0	12864	33989	
516	0	12872	33815	
517	0	12872	32583	
518	0	12860	32866	
519	0	12868	32951	
520	0	12868	33985	
521	0	12868	33242	
522	0	12856	33661	
523	0	12864	33104	
524	0	12872	32164	
525	0	12865	31636	
526	0	12854	31416	
527	0	12860	32029	
528	0	12866	32233	
529	0	12858	31959	
530	0	12856	32952	
531	0	12864	30847	
532	0	12862	30697	
533	0	12858	31745	
534	0	12847	32099	
535	0	12852	32164	
536	0	12860	32477	
537	0	12856	32354	
538	0	12852	31565	
539	0	12856	30874	
540	0	12858	31406	
541	0	12850	30879	
542	0	12844	31074	
543	0	12854	31228	
544	0	12858	30197	
545	0	12856	29438	
546	0	12848	30628	
547	0	12849	32324	
548	0	12854	31142	
549	0	12852	30774	
550	0	12844	32732	
551	0	12848	34740	
552	0	12855	35674	
553	0	12848	35100	
554	0	12840	33996	
555	0	12844	34518	
556	0	12856	35020	
557	0	12848	34647	
558	0	12841	34496	
559	0	12848	34196	
560	0	12854	34460	
561	0	12850	33775	
562	0	12844	32966	
563	0	12849	33260	
564	0	12850	34324	
565	0	12846	34276	
566	0	12840	32656	
567	0	12842	34393	
568	0	12846	34178	
569	0	12844	34856	
570	0	12836	35617	
571	0	12844	33988	
572	0	12850	33442	
573	0	12848	34044	
574	0	12838	32991	
575	0	12842	32363	
576	0	12848	32589	
577	0	12848	33118	
578	0	12838	33575	
579	0	12844	34462	
580	0	12854	33798	
581	0	12844	33113	
582	0	12846	33540	
583	0	12841	33282	
584	0	12854	33186	
585	0	12852	32937	
586	0	12837	32670	
587	0	12846	33126	
588	0	12853	33184	
589	0	12849	33046	
590	0	12840	31959	
591	0	12846	33004	
592	0	12852	34389	
593	0	12853	32888	
594	0	12842	32142	
595	0	12845	33468	
596	0	12852	33540	
597	0	12850	33452	
598	0	12840	33105	
599	0	12844	33516	
600	0	12856	33711	
601	0	12845	33340	
602	0	12842	33170	
603	0	12846	33263	
604	0	12854	33120	
605	0	12849	32564	
606	0	12836	33140	
607	0	12844	33006	
608	0	12848	32896	
609	0	12845	32721	
610	0	12840	32401	
611	0	12844	32328	
612	0	12848	32192	
613	0	12848	33671	
614	0	12840	32666	
615	0	12844	32456	
616	0	12854	30879	
617	0	12846	30508	
618	0	12836	31589	
619	0	12840	34201	
620	0	12848	34721	
621	0	12844	33993	
622	0	12840	33818	
623	0	12844	32532	
624	0	12852	32425	
625	0	12844	32874	
626	0	12842	32604	
627	0	12846	31740	
628	0	12848	31873	
629	0	12841	31975	
630	0	12841	31564	
631	0	12846	31412	
632	0	12848	31099	
633	0	12842	32129	
634	0	12838	32866	
635	0	12841	33472	
636	0	12848	33750	
637	0	12841	33602	
638	0	12836	33287	
639	0	12842	33567	
640	0	12844	33799	
641	0	12847	33247	
642	0	12836	32682	
643	0	12842	33588	
644	0	12850	33420	
645	0	12840	33600	
646	0	12836	33287	
647	0	12848	29723	
648	0	12848	30672	
649	0	12840	33067	
650	0	12832	33628	
651	0	12840	32435	
652	0	12852	30725	
653	0	12849	29689	
654	0	12852	28430	
655	0	12864	28116	
656	0	12866	28992	
657	0	12863	29226	
658	0	12845	31138	
659	0	12851	33660	
660	0	12852	35144	
661	0	12848	35660	
662	0	12838	34846	
663	0	12841	33364	
664	0	12844	33201	
665	0	12841	33438	
666	0	12836	33508	
667	0	12841	34088	
668	0	12844	33820	
669	0	12840	33764	
670	0	12832	33679	
671	0	12834	34052	
672	0	12846	34500	
673	0	12841	34695	
674	0	12828	34583	
675	0	12842	33333	
676	0	12845	30457	
677	0	12836	31673	
678	0	12828	32839	
679	0	12837	33718	
680	0	12842	33684	
681	0	12838	33280	
682	0	12832	32804	
683	0	12836	32653	
684	0	12838	32486	
685	0	12836	32044	
686	0	12832	32126	
687	0	12840	32920	
688	0	12840	32688	
689	0	12838	32240	
690	0	12828	31854	
691	0	12841	32260	
692	0	12838	32036	
693	0	12838	31664	
694	0	12830	31569	
695	0	12838	31732	
696	0	12836	32205	
697	0	12832	33284	
698	0	12832	32620	
699	0	12835	31012	
700	0	12842	29932	
701	0	12840	30140	
702	0	12833	29972	
703	0	12840	30193	
704	0	12843	29822	
705	0	12840	29782	
706	0	12828	29444	
707	0	12836	29703	
708	0	12837	30878	
709	0	12840	31772	
710	0	12828	32087	
711	0	12836	32412	
712	0	12836	33204	
713	0	12834	34820	
714	0	12828	36156	
715	0	12832	36103	
716	0	12838	35357	
717	0	12832	34036	
718	0	12826	34232	
719	0	12834	36748	
720	0	12840	36316	
721	0	12832	33663	
722	0	12828	31766	
723	0	12837	31600	
724	0	12834	31644	
725	0	12832	32089	
726	0	12828	32826	
727	0	12834	33704	
728	0	12836	33812	
729	0	12832	33719	
730	0	12828	33506	
731	0	12836	34368	
732	0	12838	33795	
733	0	12834	33448	
734	0	12825	32940	
735	0	12829	34421	
736	0	12834	34401	
737	0	12828	35412	
738	0	12821	36336	
739	0	12832	35372	
740	0	12838	32602	
741	0	12832	30589	
742	0	12828	30598	
743	0	12834	31239	
744	0	12832	31776	
745	0	12833	31772	
746	0	12826	32135	
747	0	12830	32602	
748	0	12834	33306	
749	0	12829	33362	
750	0	12825	33432	
751	0	12832	33409	
752	0	12837	33104	
753	0	12832	32965	
754	0	12820	32832	
755	0	12829	32932	
756	0	12832	32719	
757	0	12826	33140	
758	0	12820	33100	
759	0	12830	32880	
760	0	12830	32711	
761	0	12828	33041	
762	0	12820	33132	
763	0	12824	32820	
764	0	12830	32511	
765	0	12826	32467	
766	0	12822	32557	
767	0	12826	32887	
768	0	12828	33712	
769	0	12826	33433	
770	0	12824	32844	
771	0	12828	32548	
772	0	12832	32346	
773	0	12824	32221	
774	0	12821	32510	
775	0	12826	32504	
776	0	12830	32468	
777	0	12820	32815	
778	0	12820	33275	
779	0	12826	33149	
780	0	12830	33125	
781	0	12824	34272	
782	0	12818	33706	
783	0	12824	33156	
784	0	12824	32144	
785	0	12824	32047	
786	0	12817	31810	
787	0	12822	30897	
788	0	12830	28519	
789	0	12824	27898	
790	0	12814	29495	
791	0	12820	32640	
792	0	12828	33839	
793	0	12826	34253	
794	0	12818	34218	
795	0	12820	33350	
796	0	12830	33444	
797	0	12820	32552	
798	0	12816	32178	
799	0	12820	32335	
800	0	12826	32224	
801	0	12820	32272	
802	0	12816	32574	
803	0	12820	33010	
804	0	12821	31986	
805	0	12818	31835	
806	0	12810	32458	
807	0	12820	32519	
808	0	12821	32976	
809	0	12816	33671	
810	0	12812	34536	
811	0	12816	34618	
812	0	12816	34453	
813	0	12812	33991	
814	0	12808	33792	
815	0	12812	33799	
816	0	12818	33606	
817	0	12812	32889	
818	0	12812	32316	
819	0	12812	31937	
820	0	12822	29309	
821	0	12816	26418	
822	0	12816	25048	
823	0	12825	25668	
824	0	12832	27357	
825	0	12831	28630	
826	0	12820	30134	
827	0	12816	33828	
828	0	12816	36706	
829	0	12812	36998	
830	0	12809	35924	
831	0	12810	34604	
832	0	12818	34136	
833	0	12810	34054	
834	0	12806	33868	
835	0	12812	33892	
836	0	12818	33671	
837	0	12809	33676	
838	0	12800	33621	
839	0	12806	33490	
840	0	12808	33350	
841	0	12806	33217	
842	0	12800	33212	
843	0	12808	33109	
844	0	12810	33094	
845	0	12808	33064	
846	0	12802	32985	
847	0	12810	32881	
848	0	12812	32830	
849	0	12805	32820	
850	0	12798	32763	
851	0	12809	32670	
852	0	12810	32629	
853	0	12808	32653	
854	0	12804	32581	
855	0	12805	32368	
856	0	12810	32358	
857	0	12804	32276	
858	0	12800	32342	
859	0	12804	32212	
860	0	12809	31916	
861	0	12804	31669	
862	0	12800	31367	
863	0	12805	31327	
864	0	12808	31258	
865	0	12804	31116	
866	0	12800	30852	
867	0	12810	30612	
868	0	12810	30362	
869	0	12804	30208	
870	0	12804	30058	
871	0	12805	30140	
872	0	12812	30073	
873	0	12808	30144	
874	0	12802	30165	
875	0	12808	30156	
876	0	12808	30143	
877	0	12806	30575	
878	0	12798	30969	
879	0	12805	31536	
880	0	12812	31840	
881	0	12806	32433	
882	0	12798	33003	
883	0	12804	33620	
884	0	12810	33988	
885	0	12798	34276	
886	0	12796	34537	
887	0	12802	34656	
888	0	12809	34684	
889	0	12797	34850	
890	0	12796	34885	
891	0	12802	34930	
892	0	12808	34785	
893	0	12801	34604	
894	0	12800	34612	
895	0	12804	34542	
896	0	12804	34548	
897	0	12800	34584	
898	0	12796	34432	
899	0	12804	34444	
900	0	12808	34321	
901	0	12798	34040	
902	0	12796	34100	
903	0	12802	33986	
904	0	12805	33856	
905	0	12800	33741	
906	0	12800	33664	
907	0	12804	33698	
908	0	12804	33695	
909	0	12800	33668	
910	0	12792	33591	
911	0	12803	33593	
912	0	12804	33543	
913	0	12796	33464	
914	0	12794	33531	
915	0	12800	33509	
916	0	12802	33468	
917	0	12796	33472	
918	0	12794	33554	
919	0	12796	33384	
920	0	12797	33376	
921	0	12792	33287	
922	0	12786	33364	
923	0	12792	33301	
924	0	12792	33325	
925	0	12789	33316	
926	0	12784	33360	
927	0	12789	33265	
928	0	12792	33129	
929	0	12788	33216	
930	0	12783	33220	
931	0	12788	33265	
932	0	12793	33316	
933	0	12781	33287	
934	0	12780	33194	
935	0	12788	33228	
936	0	12788	33071	
937	0	12785	32998	
938	0	12777	33114	
939	0	12784	33125	
940	0	12790	33204	
941	0	12784	33108	
942	0	12777	32935	
943	0	12788	33006	
944	0	12788	32943	
945	0	12785	32892	
946	0	12785	32931	
947	0	12789	32964	
948	0	12792	32924	
949	0	12788	32956	
950	0	12786	32901	
951	0	12792	32928	
952	0	12794	32908	
953	0	12785	32816	
954	0	12786	32842	
955	0	12788	32775	
956	0	12794	32816	
957	0	12784	32684	
958	0	12785	32805	
959	0	12789	32768	
960	0	12790	32712	
961	0	12784	32662	
962	0	12784	32420	
963	0	12793	32132	
964	0	12796	31932	
965	0	12788	32007	
966	0	12790	31955	
967	0	12788	31879	
968	0	12796	31786	
969	0	12788	31548	
970	0	12784	31495	
971	0	12788	31377	
972	0	12794	31220	
973	0	12786	31356	
974	0	12788	31834	
975	0	12794	31996	
976	0	12796	32263	
977	0	12792	32417	
978	0	12784	32808	
979	0	12797	33012	
980	0	12792	33318	
981	0	12788	33286	
982	0	12785	33372	
983	0	12792	33357	
984	0	12794	33350	
985	0	12784	33287	
986	0	12784	33320	
987	0	12792	33286	
988	0	12798	33071	
989	0	12788	33126	
990	0	12786	33128	
991	0	12792	32987	
992	0	12801	32392	
993	0	12788	31239	
994	0	12793	30765	
995	0	12800	28592	
996	0	12808	28319	
997	0	12804	26748	
998	0	12801	25764	
999	0	12814	27428	
1000	0	12816	28554	
1001	0	12796	31630	
1002	0	12788	34823	
1003	0	12790	36794	
1004	0	12796	36375	
1005	0	12792	35160	
1006	0	12790	34073	
1007	0	12792	33756	
1008	0	12793	33895	
1009	0	12780	33818	
1010	0	12778	33589	
1011	0	12786	33792	
1012	0	12792	33543	
1013	0	12784	33338	
1014	0	12781	33470	
1015	0	12785	33372	
1016	0	12792	33382	
1017	0	12786	33338	
1018	0	12788	32860	
1019	0	12793	33112	
1020	0	12793	32941	
1021	0	12786	32882	
1022	0	12788	32789	
1023	0	12796	32765	
1024	0	12800	32633	
1025	0	12788	32612	
1026	0	12792	32661	
1027	0	12796	32599	
1028	0	12796	32519	
1029	0	12792	32327	
1030	0	12793	32342	
1031	0	12797	31996	
1032	0	12804	32084	
1033	0	12795	31996	
1034	0	12798	32165	
1035	0	12802	31856	
1036	0	12802	31438	
1037	0	12798	31535	
1038	0	12798	31288	
1039	0	12801	31038	
1040	0	12805	30842	
1041	0	12797	30612	
1042	0	12796	30441	
1043	0	12800	30311	
1044	0	12805	30116	
1045	0	12797	29990	
1046	0	12798	29808	
1047	0	12800	30026	
1048	0	12804	29894	
1049	0	12798	30042	
1050	0	12796	30142	
1051	0	12802	30215	
1052	0	12804	30445	
1053	0	12794	30801	
1054	0	12794	31480	
1055	0	12800	31925	
1056	0	12800	32450	
1057	0	12796	32858	
1058	0	12792	33483	
1059	0	12800	34048	
1060	0	12804	34196	
1061	0	12792	34688	
1062	0	12792	34820	
1063	0	12800	34852	
1064	0	12801	34799	
1065	0	12796	34724	
1066	0	12792	35045	
1067	0	12799	34729	
1068	0	12802	34720	
1069	0	12796	34512	
1070	0	12792	34579	
1071	0	12798	34342	
1072	0	12802	34424	
1073	0	12796	34086	
1074	0	12792	34054	
1075	0	12800	34220	
1076	0	12801	34055	
1077	0	12792	33940	
1078	0	12796	33617	
1079	0	12796	33908	
1080	0	12800	33676	
1081	0	12792	33653	
1082	0	12792	33764	
1083	0	12800	33851	
1084	0	12800	33738	
1085	0	12794	33488	
1086	0	12792	33722	
1087	0	12794	33633	
1088	0	12800	33543	
1089	0	12792	33514	
1090	0	12792	33676	
1091	0	12794	33604	
1092	0	12796	33492	
1093	0	12796	33420	
1094	0	12792	33408	
1095	0	12796	33400	
1096	0	12800	33306	
1097	0	12790	33212	
1098	0	12792	33543	
1099	0	12799	33428	
1100	0	12797	33485	
1101	0	12792	33334	
1102	0	12794	33244	
1103	0	12796	33287	
1104	0	12797	33472	
1105	0	12794	33212	
1106	0	12788	33158	
1107	0	12794	33319	
1108	0	12796	33124	
1109	0	12788	33245	
1110	0	12792	33165	
1111	0	12794	33357	
1112	0	12794	33162	
1113	0	12789	33148	
1114	0	12793	33086	
1115	0	12796	33028	
1116	0	12794	32982	
1117	0	12786	33050	
1118	0	12790	33031	
1119	0	12794	33108	
1120	0	12796	32846	
1121	0	12788	32912	
1122	0	12788	32844	
1123	0	12793	32948	
1124	0	12800	32788	
1125	0	12788	32684	
1126	0	12788	32886	
1127	0	12793	32664	
1128	0	12798	32456	
1129	0	12788	32217	
1130	0	12789	32095	
1131	0	12792	32327	
1132	0	12792	32162	
1133	0	12784	31776	
1134	0	12788	31844	
1135	0	12794	31536	
1136	0	12790	31736	
1137	0	12788	31751	
1138	0	12788	31528	
1139	0	12793	31668	
1140	0	12792	32103	
1141	0	12782	32216	
1142	0	12786	32553	
1143	0	12789	32406	
1144	0	12788	32828	
1145	0	12782	32972	
1146	0	12782	33441	
1147	0	12792	33324	
1148	0	12790	33092	
1149	0	12780	33444	
1150	0	12780	33297	
1151	0	12785	33340	
1152	0	12789	33121	
1153	0	12780	33114	
1154	0	12784	33185	
1155	0	12788	33149	
1156	0	12787	32975	
1157	0	12784	32550	
1158	0	12780	31904	
1159	0	12786	31518	
1160	0	12790	30528	
1161	0	12786	28800	
1162	0	12794	27973	
1163	0	12800	25982	
1164	0	12805	25626	
1165	0	12800	27322	
1166	0	12792	28724	
1167	0	12793	32401	
1168	0	12793	35476	
1169	0	12780	36156	
1170	0	12784	35933	
1171	0	12786	34958	
1172	0	12788	33799	
1173	0	12780	33521	
1174	0	12780	33612	
1175	0	12789	33622	
1176	0	12790	33532	
1177	0	12780	33461	
1178	0	12780	33378	
1179	0	12788	33388	
1180	0	12788	33383	
1181	0	12777	33069	
1182	0	12784	33124	
1183	0	12786	33137	
1184	0	12784	33098	
1185	0	12780	32768	
1186	0	12783	32827	
1187	0	12788	32844	
1188	0	12786	32725	
1189	0	12781	32704	
1190	0	12782	32636	
1191	0	12789	32497	
1192	0	12784	32410	
1193	0	12778	32356	
1194	0	12784	32373	
1195	0	12788	31801	
1196	0	12785	30917	
1197	0	12778	31076	
1198	0	12784	32289	
1199	0	12788	32692	
1200	0	12786	32693	
1201	0	12780	32201	
1202	0	12777	32050	
1203	0	12789	31792	
1204	0	12785	31479	
1205	0	12782	31256	
1206	0	12786	31012	
1207	0	12793	30737	
1208	0	12793	30534	
1209	0	12782	30278	
1210	0	12782	30144	
1211	0	12786	30041	
1212	0	12790	30032	
1213	0	12782	29994	
1214	0	12784	29936	
1215	0	12792	30127	
1216	0	12792	30170	
1217	0	12780	30242	
1218	0	12782	30808	
1219	0	12789	31364	
1220	0	12792	31842	
1221	0	12781	32335	
1222	0	12784	32855	
1223	0	12792	33223	
1224	0	12790	33696	
1225	0	12778	34100	
1226	0	12782	34512	
1227	0	12788	34583	
1228	0	12794	34732	
1229	0	12780	34796	
1230	0	12780	34823	
1231	0	12790	34884	
1232	0	12792	34720	
1233	0	12781	34597	
1234	0	12788	34564	
1235	0	12793	34629	
1236	0	12792	34503	
1237	0	12784	34209	
1238	0	12789	34273	
1239	0	12794	34110	
1240	0	12788	34229	
1241	0	12788	34086	
1242	0	12788	34055	
1243	0	12788	33914	
1244	0	12792	33732	
1245	0	12784	33816	
1246	0	12788	33976	
1247	0	12794	33924	
1248	0	12789	33766	
1249	0	12784	33661	
1250	0	12786	33596	
1251	0	12794	33666	
1252	0	12792	33608	
1253	0	12785	33508	
1254	0	12782	33623	
1255	0	12793	33510	
1256	0	12796	33480	
1257	0	12788	33378	
1258	0	12789	33586	
1259	0	12797	33476	
1260	0	12790	33457	
1261	0	12788	33368	
1262	0	12788	33369	
1263	0	12794	33470	
1264	0	12792	33290	
1265	0	12782	33367	
1266	0	12786	33372	
1267	0	12790	33254	
1268	0	12792	33301	
1269	0	12784	33137	
1270	0	12784	33380	
1271	0	12794	33280	
1272	0	12793	33311	
1273	0	12789	33085	
1274	0	12789	33200	
1275	0	12794	33169	
1276	0	12790	33174	
1277	0	12784	33058	
1278	0	12788	33084	
1279	0	12790	33113	
1280	0	12792	33060	
1281	0	12787	32973	
1282	0	12784	33040	
1283	0	12794	33077	
1284	0	12793	32882	
1285	0	12780	32820	
1286	0	12790	32924	
1287	0	12794	32852	
1288	0	12792	32454	
1289	0	12786	32204	
1290	0	12789	32218	
1291	0	12794	32540	
1292	0	12792	32519	
1293	0	12788	32274	
1294	0	12788	32160	
1295	0	12800	32035	
1296	0	12796	31784	
1297	0	12786	31472	
1298	0	12789	31384	
1299	0	12794	31698	
1300	0	12796	32040	
1301	0	12790	32100	
1302	0	12794	32480	
1303	0	12794	32803	
1304	0	12792	32918	
1305	0	12784	33084	
1306	0	12788	33380	
1307	0	12792	33461	
1308	0	12792	33468	
1309	0	12784	33254	
1310	0	12786	33494	
1311	0	12793	33528	
1312	0	12793	33361	
1313	0	12782	33188	
1314	0	12785	33379	
1315	0	12792	33214	
1316	0	12792	33142	
1317	0	12778	32932	
1318	0	12785	32152	
1319	0	12792	31534	
1320	0	12794	30213	
1321	0	12792	28656	
1322	0	12794	28112	
1323	0	12806	26261	
1324	0	12806	25986	
1325	0	12804	27784	
1326	0	12802	29159	
1327	0	12799	32684	
1328	0	12797	35646	
1329	0	12786	36416	
1330	0	12791	35652	
1331	0	12796	34532	
1332	0	12794	33866	
1333	0	12785	33719	
1334	0	12789	33799	
1335	0	12796	33868	
1336	0	12793	33812	
1337	0	12784	33695	
1338	0	12789	33789	
1339	0	12792	33560	
1340	0	12794	33464	
1341	0	12788	33260	
1342	0	12788	33272	
1343	0	12794	33207	
1344	0	12790	33133	
1345	0	12784	32980	
1346	0	12789	32965	
1347	0	12796	32996	
1348	0	12796	32984	
1349	0	12784	32820	
1350	0	12786	32812	
1351	0	12792	32772	
1352	0	12791	32692	
1353	0	12784	32420	
1354	0	12792	32430	
1355	0	12792	32409	
1356	0	12792	32288	
1357	0	12788	32060	
1358	0	12788	32047	
1359	0	12790	31980	
1360	0	12792	31607	
1361	0	12787	31510	
1362	0	12788	31526	
1363	0	12793	31343	
1364	0	12796	31074	
1365	0	12785	30774	
1366	0	12792	30721	
1367	0	12800	30452	
1368	0	12797	30236	
1369	0	12784	29998	
1370	0	12790	29949	
1371	0	12796	29974	
1372	0	12792	29874	
1373	0	12792	29825	
1374	0	12794	29898	
1375	0	12796	29951	
1376	0	12798	30000	
1377	0	12788	30052	
1378	0	12794	30614	
1379	0	12794	31303	
1380	0	12794	31778	
1381	0	12785	32357	
1382	0	12788	32894	
1383	0	12793	33436	
1384	0	12790	33799	
1385	0	12786	34046	
1386	0	12786	34198	
1387	0	12798	34540	
1388	0	12792	34808	
1389	0	12786	34682	
1390	0	12788	34676	
1391	0	12797	34725	
1392	0	12795	34634	
1393	0	12786	34584	
1394	0	12792	34576	
1395	0	12798	34561	
1396	0	12792	34311	
1397	0	12786	34298	
1398	0	12790	34268	
1399	0	12792	34252	
1400	0	12796	34183	
1401	0	12784	34041	
1402	0	12790	33896	
1403	0	12796	33868	
1404	0	12794	33850	
1405	0	12789	33676	
1406	0	12791	33766	
1407	0	12796	33861	
1408	0	12796	33676	
1409	0	12789	33628	
1410	0	12794	33776	
1411	0	12794	33704	
1412	0	12796	33632	
1413	0	12785	33538	
1414	0	12790	33519	
1415	0	12796	33500	
1416	0	12792	33518	
1417	0	12788	33287	
1418	0	12788	33382	
1419	0	12795	33444	
1420	0	12792	33505	
1421	0	12786	33399	
1422	0	12792	33552	
1423	0	12796	33558	
1424	0	12792	33527	
1425	0	12788	33404	
1426	0	12784	33418	
1427	0	12794	33381	
1428	0	12798	33463	
1429	0	12785	33287	
1430	0	12792	33370	
1431	0	12796	33388	
1432	0	12789	33228	
1433	0	12784	33005	
1434	0	12789	33176	
1435	0	12793	33231	
1436	0	12791	33226	
1437	0	12782	33002	
1438	0	12787	33076	
1439	0	12793	33209	
1440	0	12792	33069	
1441	0	12784	32916	
1442	0	12788	33102	
1443	0	12793	33088	
1444	0	12794	32992	
1445	0	12784	32786	
1446	0	12788	33005	
1447	0	12794	32792	
1448	0	12792	32533	
1449	0	12788	32221	
1450	0	12788	32340	
1451	0	12796	32458	
1452	0	12790	32370	
1453	0	12788	32224	
1454	0	12792	32117	
1455	0	12800	31910	
1456	0	12796	31520	
1457	0	12786	31511	
1458	0	12794	31328	
1459	0	12795	31551	
1460	0	12796	31977	
1461	0	12784	32003	
1462	0	12792	32332	
1463	0	12794	32628	
1464	0	12794	32876	
1465	0	12784	32980	
1466	0	12790	33457	
1467	0	12792	33461	
1468	0	12796	33573	
1469	0	12782	33389	
1470	0	12785	33360	
1471	0	12792	33428	
1472	0	12784	33484	
1473	0	12783	33344	
1474	0	12784	33380	
1475	0	12796	33383	
1476	0	12790	33223	
1477	0	12785	32902	
1478	0	12790	32304	
1479	0	12796	31396	
1480	0	12792	30697	
1481	0	12788	28783	
1482	0	12797	28633	
1483	0	12808	27090	
1484	0	12804	25962	
1485	0	12802	27468	
1486	0	12808	28612	
1487	0	12800	31981	
1488	0	12794	34910	
1489	0	12784	36463	
1490	0	12792	36186	
1491	0	12796	34934	
1492	0	12795	33946	
1493	0	12786	33734	
1494	0	12788	33845	
1495	0	12796	33844	
1496	0	12794	33756	
1497	0	12782	33540	
1498	0	12789	33572	
1499	0	12794	33565	
1500	0	12792	33504	
1501	0	12781	33188	
1502	0	12790	33196	
1503	0	12792	33338	
1504	0	12788	33133	
1505	0	12782	32967	
1506	0	12790	33015	
1507	0	12794	32916	
1508	0	12792	32884	
1509	0	12781	32757	
1510	0	12786	32704	
1511	0	12793	32751	
1512	0	12789	32637	
1513	0	12785	32468	
1514	0	12788	32400	
1515	0	12792	32350	
1516	0	12792	32233	
1517	0	12783	32017	
1518	0	12789	32090	
1519	0	12798	32029	
1520	0	12789	31943	
1521	0	12780	31581	
1522	0	12790	31388	
1523	0	12792	31324	
1524	0	12789	31196	
1525	0	12781	30932	
1526	0	12788	30727	
1527	0	12792	30495	
1528	0	12789	30284	
1529	0	12780	30056	
1530	0	12788	30060	
1531	0	12796	30057	
1532	0	12794	29792	
1533	0	12782	29724	
1534	0	12785	29844	
1535	0	12795	30046	
1536	0	12788	30095	
1537	0	12786	30124	
1538	0	12785	30610	
1539	0	12793	31111	
1540	0	12794	31489	
1541	0	12784	32017	
1542	0	12788	32775	
1543	0	12793	33330	
1544	0	12786	33788	
1545	0	12784	34108	
1546	0	12787	34437	
1547	0	12793	34567	
1548	0	12788	34692	
1549	0	12782	34708	
1550	0	12792	34756	
1551	0	12793	34924	
1552	0	12792	34892	
1553	0	12781	34800	
1554	0	12784	34806	
1555	0	12792	34721	
1556	0	12786	34553	
1557	0	12781	34216	
1558	0	12786	34309	
1559	0	12790	34445	
1560	0	12784	34162	
1561	0	12774	34065	
1562	0	12782	34098	
1563	0	12792	34031	
1564	0	12781	33773	
1565	0	12772	33732	
1566	0	12781	33750	
1567	0	12788	33781	
1568	0	12778	33666	
1569	0	12769	33552	
1570	0	12776	33628	
1571	0	12784	33640	
1572	0	12780	33560	
1573	0	12768	33433	
1574	0	12777	33445	
1575	0	12784	33521	
1576	0	12774	33581	
1577	0	12777	33468	
1578	0	12776	33438	
1579	0	12788	33496	
1580	0	12781	33468	
1581	0	12776	33368	
1582	0	12786	33521	
1583	0	12789	33442	
1584	0	12786	33415	
1585	0	12780	33365	
1586	0	12788	33414	
1587	0	12792	33449	
1588	0	12785	33233	
1589	0	12780	33268	
1590	0	12788	33433	
1591	0	12792	33309	
1592	0	12785	33176	
1593	0	12780	33040	
1594	0	12786	33235	
1595	0	12794	33268	
1596	0	12788	33324	
1597	0	12784	33154	
1598	0	12788	33164	
1599	0	12789	33052	
1600	0	12786	33109	
1601	0	12780	33148	
1602	0	12788	33100	
1603	0	12792	32976	
1604	0	12790	32936	
1605	0	12781	32905	
1606	0	12784	32859	
1607	0	12790	32896	
1608	0	12785	32903	
1609	0	12780	32456	
1610	0	12787	32345	
1611	0	12788	32262	
1612	0	12787	32340	
1613	0	12784	32370	
1614	0	12785	32300	
1615	0	12792	32065	
1616	0	12786	31882	
1617	0	12780	31579	
1618	0	12785	31565	
1619	0	12786	31505	
1620	0	12786	31495	
1621	0	12781	31832	
1622	0	12786	32005	
1623	0	12792	32329	
1624	0	12781	32448	
1625	0	12776	32772	
1626	0	12784	33031	
1627	0	12786	33217	
1628	0	12782	33325	
1629	0	12776	33369	
1630	0	12781	33281	
1631	0	12784	33388	
1632	0	12784	33479	
1633	0	12776	33344	
1634	0	12782	33392	
1635	0	12786	33476	
1636	0	12778	33184	
1637	0	12776	33106	
1638	0	12782	33028	
1639	0	12786	32675	
1640	0	12780	31565	
1641	0	12776	31027	
1642	0	12788	29063	
1643	0	12792	28644	
1644	0	12794	27493	
1645	0	12792	25996	
1646	0	12796	26590	
1647	0	12804	28088	
1648	0	12792	30650	
1649	0	12776	34124	
1650	0	12784	36359	
1651	0	12789	36448	
1652	0	12784	35335	
1653	0	12776	34120	
1654	0	12780	33791	
1655	0	12784	33846	
1656	0	12780	33799	
1657	0	12773	33586	
1658	0	12782	33508	
1659	0	12781	33595	
1660	0	12778	33454	
1661	0	12774	33542	
1662	0	12784	33153	
1663	0	12784	33273	
1664	0	12780	33225	
1665	0	12772	33040	
1666	0	12777	32936	
1667	0	12784	33023	
1668	0	12780	32916	
1669	0	12774	32830	
1670	0	12784	32688	
1671	0	12784	32664	
1672	0	12778	32646	
1673	0	12772	32433	
1674	0	12780	32462	
1675	0	12782	32585	
1676	0	12778	32356	
1677	0	12768	32199	
1678	0	12777	32300	
1679	0	12781	32208	
1680	0	12774	32016	
1681	0	12772	31845	
1682	0	12778	31792	
1683	0	12784	31707	
1684	0	12776	31448	
1685	0	12772	31099	
1686	0	12777	31128	
1687	0	12781	30727	
1688	0	12777	30648	
1689	0	12775	30401	
1690	0	12780	30268	
1691	0	12780	30055	
1692	0	12782	30010	
1693	0	12772	29894	
1694	0	12776	29994	
1695	0	12782	29940	
1696	0	12774	30008	
1697	0	12772	30148	
1698	0	12778	30132	
1699	0	12782	30560	
1700	0	12772	30727	
1701	0	12773	31343	
1702	0	12776	32044	
1703	0	12781	32724	
1704	0	12775	33088	
1705	0	12770	33654	
1706	0	12778	33848	
1707	0	12782	34474	
1708	0	12772	34500	
1709	0	12768	34598	
1710	0	12778	35016	
1711	0	12781	34722	
1712	0	12776	34756	
1713	0	12768	34687	
1714	0	12777	34652	
1715	0	12777	34576	
1716	0	12774	34592	
1717	0	12772	34352	
1718	0	12774	34368	
1719	0	12784	34239	
1720	0	12780	34296	
1721	0	12772	34084	
1722	0	12776	34230	
1723	0	12776	33991	
1724	0	12769	33794	
1725	0	12768	33762	
1726	0	12776	33724	
1727	0	12782	33732	
1728	0	12772	33766	
1729	0	12768	33541	
1730	0	12772	33548	
1731	0	12778	33578	
1732	0	12769	33757	
1733	0	12772	33469	
1734	0	12774	33572	
1735	0	12777	33663	
1736	0	12769	33604	
1737	0	12770	33434	
1738	0	12773	33528	
1739	0	12778	33442	
1740	0	12768	33414	
1741	0	12769	33406	
1742	0	12772	33600	
1743	0	12776	33388	
1744	0	12772	33324	
1745	0	12766	33439	
1746	0	12770	33274	
1747	0	12778	33476	
1748	0	12768	33415	
1749	0	12768	33400	
1750	0	12770	33471	
1751	0	12772	33318	
1752	0	12769	33352	
1753	0	12766	33313	
1754	0	12768	33218	
1755	0	12770	33294	
1756	0	12764	33278	
1757	0	12756	33252	
1758	0	12764	33215	
1759	0	12768	33182	
1760	0	12762	33000	
1761	0	12760	32882	
1762	0	12765	33105	
1763	0	12769	33169	
1764	0	12760	33038	
1765	0	12760	33031	
1766	0	12764	32912	
1767	0	12766	32756	
1768	0	12764	32612	
1769	0	12760	32421	
1770	0	12764	32370	
1771	0	12772	32369	
1772	0	12763	32425	
1773	0	12764	32254	
1774	0	12768	31892	
1775	0	12772	31947	
1776	0	12768	31702	
1777	0	12760	31613	
1778	0	12766	31617	
1779	0	12772	31612	
1780	0	12762	31932	
1781	0	12762	32100	
1782	0	12768	32288	
1783	0	12774	32532	
1784	0	12764	32540	
1785	0	12760	32819	
1786	0	12772	33132	
1787	0	12772	33518	
1788	0	12764	33469	
1789	0	12762	33342	
1790	0	12769	33480	
1791	0	12772	33677	
1792	0	12768	33517	
1793	0	12760	33040	
1794	0	12772	33576	
1795	0	12774	33314	
1796	0	12768	33220	
1797	0	12764	33055	
1798	0	12769	32668	
1799	0	12772	32047	
1800	0	12766	31412	
1801	0	12770	29481	
1802	0	12780	28621	
1803	0	12784	26941	
1804	0	12781	25359	
1805	0	12776	25568	
1806	0	12788	27094	
1807	0	12782	29889	
1808	0	12768	33644	
1809	0	12764	36303	
1810	0	12769	36452	
1811	0	12772	35636	
1812	0	12768	34488	
1813	0	12762	33877	
1814	0	12772	33728	
1815	0	12778	33641	
1816	0	12768	33736	
1817	0	12764	33573	
1818	0	12768	33570	
1819	0	12774	33516	
1820	0	12766	33356	
1821	0	12766	33340	
1822	0	12768	33317	
1823	0	12772	33356	
1824	0	12768	33212	
1825	0	12764	33127	
1826	0	12768	32956	
1827	0	12772	32925	
1828	0	12760	32768	
1829	0	12760	32836	
1830	0	12766	32895	
1831	0	12773	32641	
1832	0	12764	32496	
1833	0	12762	32519	
1834	0	12770	32433	
1835	0	12772	32366	
1836	0	12764	32324	
1837	0	12764	32180	
1838	0	12770	32028	
1839	0	12772	32065	
1840	0	12760	32050	
1841	0	12764	31728	
1842	0	12768	31667	
1843	0	12772	31432	
1844	0	12764	31138	
1845	0	12760	31164	
1846	0	12769	30825	
1847	0	12770	30700	
1848	0	12761	30471	
1849	0	12760	30388	
1850	0	12768	30188	
1851	0	12772	30038	
1852	0	12761	29949	
1853	0	12762	30084	
1854	0	12770	30078	
1855	0	12768	30140	
1856	0	12764	30288	
1857	0	12760	30343	
1858	0	12765	30712	
1859	0	12771	31032	
1860	0	12764	31261	
1861	0	12764	31862	
1862	0	12768	32549	
1863	0	12772	33066	
1864	0	12763	33588	
1865	0	12760	34049	
1866	0	12768	34311	
1867	0	12768	34380	
1868	0	12756	34420	
1869	0	12764	34918	
1870	0	12766	34879	
1871	0	12768	34940	
1872	0	12762	34746	
1873	0	12764	34658	
1874	0	12768	34504	
1875	0	12768	34464	
1876	0	12764	34514	
1877	0	12760	34311	
1878	0	12765	34228	
1879	0	12768	34266	
1880	0	12761	33988	
1881	0	12760	33972	
1882	0	12764	33740	
1883	0	12772	33910	
1884	0	12761	33796	
1885	0	12762	33654	
1886	0	12768	33745	
1887	0	12768	33708	
1888	0	12761	33588	
1889	0	12760	33744	
1890	0	12768	33580	
1891	0	12768	33557	
1892	0	12761	33415	
1893	0	12762	33428	
1894	0	12764	33482	
1895	0	12772	33492	
1896	0	12758	33413	
1897	0	12760	33482	
1898	0	12764	33504	
1899	0	12768	33588	
1900	0	12757	33461	
1901	0	12760	33509	
1902	0	12765	33424	
1903	0	12764	33385	
1904	0	12760	33358	
1905	0	12756	33473	
1906	0	12764	33200	
1907	0	12766	33286	
1908	0	12757	33347	
1909	0	12757	33401	
1910	0	12760	33318	
1911	0	12765	33364	
1912	0	12757	33208	
1913	0	12758	33260	
1914	0	12762	33219	
1915	0	12766	33206	
1916	0	12758	33056	
1917	0	12757	33261	
1918	0	12760	33250	
1919	0	12760	33031	
1920	0	12754	33045	
1921	0	12754	32931	
1922	0	12760	32630	
1923	0	12766	32542	
1924	0	12754	32391	
1925	0	12756	32599	
1926	0	12764	32601	
1927	0	12766	32421	
1928	0	12758	31919	
1929	0	12758	31836	
1930	0	12764	31824	
1931	0	12766	31780	
1932	0	12761	31502	
1933	0	12756	31964	
1934	0	12764	32296	
1935	0	12768	32444	
1936	0	12756	32360	
1937	0	12753	32792	
1938	0	12760	33120	
1939	0	12764	33272	
1940	0	12756	33360	
1941	0	12752	33476	
1942	0	12761	33564	
1943	0	12760	33416	
1944	0	12752	33431	
1945	0	12754	33359	
1946	0	12756	33488	
1947	0	12760	33469	
1948	0	12756	33487	
1949	0	12752	33318	
1950	0	12755	33092	
1951	0	12762	32862	
1952	0	12750	32357	
1953	0	12754	31843	
1954	0	12760	31156	
1955	0	12764	28816	
1956	0	12761	27969	
1957	0	12766	25697	
1958	0	12775	24990	
1959	0	12780	26583	
1960	0	12764	27872	
1961	0	12760	31802	
1962	0	12760	35335	
1963	0	12760	36519	
1964	0	12752	36068	
1965	0	12750	35074	
1966	0	12756	34078	
1967	0	12756	33813	
1968	0	12746	33870	
1969	0	12750	33895	
1970	0	12757	33821	
1971	0	12756	33684	
1972	0	12749	33588	
1973	0	12746	33597	
1974	0	12756	33629	
1975	0	12755	33500	
1976	0	12752	33279	
1977	0	12748	33287	
1978	0	12756	33137	
1979	0	12756	33101	
1980	0	12746	32855	
1981	0	12748	32937	
1982	0	12756	32968	
1983	0	12757	32792	
1984	0	12746	32628	
1985	0	12749	32773	
1986	0	12754	32730	
1987	0	12756	32596	
1988	0	12748	32385	
1989	0	12744	32284	
1990	0	12754	32386	
1991	0	12756	32198	
1992	0	12748	32054	
1993	0	12746	32079	
1994	0	12753	31871	
1995	0	12756	31768	
1996	0	12745	31452	
1997	0	12750	31212	
1998	0	12752	31137	
1999	0	12749	30936	
2000	0	12748	30716	
2001	0	12746	30478	
2002	0	12756	30478	
2003	0	12754	30201	
2004	0	12746	30087	
2005	0	12742	30092	
2006	0	12750	30038	
2007	0	12755	29918	
2008	0	12746	29911	
2009	0	12744	30132	
2010	0	12753	30252	
2011	0	12752	30443	
2012	0	12744	30712	
2013	0	12744	31473	
2014	0	12753	32036	
2015	0	12752	32470	
2016	0	12740	32891	
2017	0	12746	33588	
2018	0	12748	33924	
2019	0	12752	34086	
2020	0	12742	34258	
2021	0	12742	34560	
2022	0	12748	34737	
2023	0	12752	34664	
2024	0	12744	34734	
2025	0	12742	34751	
2026	0	12750	34640	
2027	0	12748	34679	
2028	0	12744	34430	
2029	0	12742	34481	
2030	0	12746	34468	
2031	0	12748	34296	
2032	0	12744	34152	
2033	0	12742	34172	
2034	0	12750	34076	
2035	0	12750	33852	
2036	0	12740	33751	
2037	0	12744	33935	
2038	0	12749	33799	
2039	0	12747	33690	
2040	0	12738	33543	
2041	0	12745	33492	
2042	0	12748	33506	
2043	0	12746	33513	
2044	0	12741	33424	
2045	0	12744	33428	
2046	0	12748	33453	
2047	0	12748	33500	
2048	0	12739	33324	
2049	0	12741	33469	
2050	0	12748	33472	
2051	0	12748	33316	
2052	0	12740	33172	
2053	0	12741	33380	
2054	0	12744	33287	
2055	0	12746	33461	
2056	0	12737	33358	
2057	0	12738	33309	
2058	0	12746	33493	
2059	0	12744	33372	
2060	0	12736	33287	
2061	0	12738	33369	
2062	0	12745	33269	
2063	0	12744	33415	
2064	0	12740	33100	
2065	0	12740	33329	
2066	0	12744	33344	
2067	0	12746	33145	
2068	0	12740	32964	
2069	0	12736	33140	
2070	0	12745	33247	
2071	0	12744	33254	
2072	0	12734	33081	
2073	0	12732	33131	
2074	0	12742	32960	
2075	0	12741	32986	
2076	0	12736	33001	
2077	0	12738	32962	
2078	0	12741	33084	
2079	0	12742	33102	
2080	0	12736	32912	
2081	0	12734	32775	
2082	0	12744	32469	
2083	0	12741	32356	
2084	0	12734	32094	
2085	0	12737	32372	
2086	0	12744	32492	
2087	0	12744	32263	
2088	0	12734	31902	
2089	0	12736	31896	
2090	0	12745	31580	
2091	0	12742	31581	
2092	0	12733	31449	
2093	0	12736	31846	
2094	0	12740	32028	
2095	0	12740	32364	
2096	0	12736	32208	
2097	0	12734	32504	
2098	0	12744	32831	
2099	0	12740	33176	
2100	0	12730	33275	
2101	0	12734	33516	
2102	0	12739	33436	
2103	0	12741	33373	
2104	0	12729	33249	
2105	0	12730	33318	
2106	0	12736	33460	
2107	0	12741	33385	
2108	0	12729	33356	
2109	0	12732	33397	
2110	0	12734	33537	
2111	0	12740	33140	
2112	0	12728	32700	
2113	0	12734	31975	
2114	0	12740	31479	
2115	0	12740	29703	
2116	0	12736	28724	
2117	0	12740	27397	
2118	0	12754	25398	
2119	0	12753	25550	
2120	0	12750	27244	
2121	0	12744	29212	
2122	0	12744	33000	
2123	0	12740	35841	
2124	0	12732	36370	
2125	0	12732	35330	
2126	0	12740	34228	
2127	0	12741	33780	
2128	0	12728	33798	
2129	0	12728	34117	
2130	0	12740	34007	
2131	0	12736	33900	
2132	0	12730	33652	
2133	0	12732	33788	
2134	0	12736	33654	
2135	0	12738	33657	
2136	0	12724	33401	
2137	0	12729	33415	
2138	0	12734	33398	
2139	0	12734	33302	
2140	0	12725	33135	
2141	0	12726	33152	
2142	0	12734	32996	
2143	0	12732	32892	
2144	0	12724	32846	
2145	0	12728	32949	
2146	0	12736	32964	
2147	0	12736	32716	
2148	0	12724	32345	
2149	0	12725	32466	
2150	0	12734	32412	
2151	0	12734	32346	
2152	0	12722	32262	
2153	0	12731	32303	
2154	0	12733	32080	
2155	0	12730	32044	
2156	0	12722	31646	
2157	0	12726	31551	
2158	0	12734	31308	
2159	0	12736	31191	
2160	0	12724	30996	
2161	0	12724	30661	
2162	0	12734	30463	
2163	0	12735	30400	
2164	0	12724	30215	
2165	0	12725	30132	
2166	0	12734	29972	
2167	0	12732	29868	
2168	0	12724	29808	
2169	0	12725	30052	
2170	0	12734	30039	
2171	0	12732	30127	
2172	0	12724	30418	
2173	0	12728	31137	
2174	0	12733	31484	
2175	0	12732	31832	
2176	0	12721	32428	
2177	0	12728	33006	
2178	0	12730	33620	
2179	0	12732	34001	
2180	0	12718	34108	
2181	0	12728	34498	
2182	0	12732	34639	
2183	0	12729	34649	
2184	0	12718	34629	
2185	0	12724	34582	
2186	0	12728	34708	
2187	0	12730	34524	
2188	0	12719	34350	
2189	0	12728	34599	
2190	0	12726	34484	
2191	0	12728	34360	
2192	0	12720	34104	
2193	0	12724	34246	
2194	0	12728	34133	
2195	0	12728	33949	
2196	0	12724	33896	
2197	0	12724	33864	
2198	0	12730	33958	
2199	0	12730	33744	
2200	0	12724	33734	
2201	0	12724	33756	
2202	0	12728	33377	
2203	0	12732	33521	
2204	0	12720	33492	
2205	0	12722	33614	
2206	0	12728	33460	
2207	0	12726	33460	
2208	0	12717	33380	
2209	0	12720	33397	
2210	0	12725	33356	
2211	0	12724	33252	
2212	0	12713	33282	
2213	0	12720	33430	
2214	0	12725	33239	
2215	0	12721	33263	
2216	0	12716	33092	
2217	0	12722	33284	
2218	0	12730	33280	
2219	0	12724	33217	
2220	0	12717	32994	
2221	0	12722	33141	
2222	0	12724	33227	
2223	0	12728	33360	
2224	0	12716	33144	
2225	0	12718	33201	
2226	0	12724	33208	
2227	0	12722	33287	
2228	0	12714	33042	
2229	0	12720	33110	
2230	0	12724	33200	
2231	0	12722	33186	
2232	0	12716	32893	
2233	0	12717	33031	
2234	0	12724	33031	
2235	0	12720	32948	
2236	0	12714	32869	
2237	0	12714	33093	
2238	0	12721	32974	
2239	0	12720	32852	
2240	0	12716	32794	
2241	0	12719	32923	
2242	0	12717	32863	
2243	0	12720	32929	
2244	0	12710	32785	
2245	0	12713	32826	
2246	0	12726	32918	
2247	0	12721	32789	
2248	0	12712	32757	
2249	0	12714	32928	
2250	0	12720	32796	
2251	0	12718	32868	
2252	0	12712	32556	
2253	0	12716	32683	
2254	0	12721	32697	
2255	0	12720	32742	
2256	0	12712	32676	
2257	0	12716	32808	
2258	0	12721	32672	
2259	0	12720	32510	
2260	0	12708	32105	
2261	0	12714	32077	
2262	0	12720	32370	
2263	0	12716	32284	
2264	0	12712	32201	
2265	0	12714	31860	
2266	0	12720	31554	
2267	0	12718	31399	
2268	0	12712	31372	
2269	0	12716	31410	
2270	0	12716	31726	
2271	0	12716	32066	
2272	0	12712	32109	
2273	0	12712	32359	
2274	0	12722	32498	
2275	0	12716	32772	
2276	0	12708	33020	
2277	0	12712	33240	
2278	0	12716	33388	
2279	0	12712	33191	
2280	0	12708	33197	
2281	0	12713	33428	
2282	0	12716	33460	
2283	0	12716	33287	
2284	0	12709	33028	
2285	0	12708	33320	
2286	0	12718	33340	
2287	0	12716	33287	
2288	0	12704	33112	
2289	0	12714	33138	
2290	0	12721	32862	
2291	0	12714	31892	
2292	0	12708	31492	
2293	0	12716	30097	
2294	0	12725	28636	
2295	0	12720	27191	
2296	0	12720	24975	
2297	0	12725	24759	
2298	0	12737	26734	
2299	0	12722	28430	
2300	0	12708	32166	
2301	0	12712	35441	
2302	0	12718	36416	
2303	0	12710	35650	
2304	0	12704	34524	
2305	0	12712	34110	
2306	0	12714	34148	
2307	0	12710	33941	
2308	0	12702	33927	
2309	0	12706	34060	
2310	0	12718	34018	
2311	0	12711	33783	
2312	0	12705	33620	
2313	0	12713	33589	
2314	0	12714	33730	
2315	0	12710	33428	
2316	0	12700	33231	
2317	0	12708	33366	
2318	0	12712	33362	
2319	0	12706	33190	
2320	0	12704	32902	
2321	0	12704	33049	
2322	0	12712	33018	
2323	0	12708	32958	
2324	0	12700	32903	
2325	0	12712	32804	
2326	0	12712	32756	
2327	0	12706	32708	
2328	0	12701	32441	
2329	0	12708	32450	
2330	0	12714	32413	
2331	0	12708	32169	
2332	0	12701	32040	
2333	0	12704	31993	
2334	0	12712	31924	
2335	0	12708	31666	
2336	0	12698	31489	
2337	0	12704	31254	
2338	0	12710	31022	
2339	0	12707	30937	
2340	0	12700	30512	
2341	0	12702	30412	
2342	0	12712	30253	
2343	0	12708	29993	
2344	0	12696	29767	
2345	0	12702	29882	
2346	0	12712	29959	
2347	0	12705	29652	
2348	0	12698	29992	
2349	0	12704	30188	
2350	0	12708	30429	
2351	0	12704	30781	
2352	0	12694	31297	
2353	0	12700	31836	
2354	0	12708	32468	
2355	0	12704	33024	
2356	0	12700	33367	
2357	0	12702	33830	
2358	0	12708	34172	
2359	0	12704	34632	
2360	0	12696	34645	
2361	0	12702	34879	
2362	0	12704	34801	
2363	0	12700	34797	
2364	0	12696	34684	
2365	0	12696	34910	
2366	0	12708	34912	
2367	0	12700	34415	
2368	0	12692	34508	
2369	0	12700	34638	
2370	0	12706	34566	
2371	0	12700	34510	
2372	0	12696	34311	
2373	0	12696	34300	
2374	0	12704	34264	
2375	0	12701	34153	
2376	0	12696	34068	
2377	0	12698	33868	
2378	0	12704	33820	
2379	0	12700	33782	
2380	0	12694	33702	
2381	0	12700	33645	
2382	0	12702	33778	
2383	0	12704	33661	
2384	0	12694	33484	
2385	0	12698	33442	
2386	0	12701	33614	
2387	0	12700	33543	
2388	0	12690	33287	
2389	0	12696	33236	
2390	0	12702	33380	
2391	0	12697	33489	
2392	0	12689	33344	
2393	0	12692	33488	
2394	0	12699	33396	
2395	0	12696	33265	
2396	0	12688	33409	
2397	0	12696	33492	
2398	0	12704	33552	
2399	0	12694	33302	
2400	0	12688	33428	
2401	0	12700	33344	
2402	0	12704	33332	
2403	0	12697	33252	
2404	0	12689	33286	
2405	0	12696	33332	
2406	0	12705	33317	
2407	0	12696	33120	
2408	0	12688	33192	
2409	0	12694	33298	
2410	0	12703	33063	
2411	0	12696	32997	
2412	0	12688	33076	
2413	0	12696	33173	
2414	0	12700	33031	
2415	0	12693	33007	
2416	0	12692	32998	
2417	0	12692	33121	
2418	0	12702	32882	
2419	0	12696	32775	
2420	0	12690	32808	
2421	0	12696	32961	
2422	0	12698	32982	
2423	0	12694	33024	
2424	0	12688	32876	
2425	0	12692	32932	
2426	0	12704	32983	
2427	0	12692	32734	
2428	0	12684	32757	
2429	0	12694	32757	
2430	0	12696	32688	
2431	0	12692	32624	
2432	0	12685	32716	
2433	0	12692	32773	
2434	0	12700	32748	
2435	0	12692	32653	
2436	0	12687	32608	
2437	0	12694	32719	
2438	0	12700	32775	
2439	0	12688	32775	
2440	0	12686	32623	
2441	0	12693	32732	
2442	0	12697	32647	
2443	0	12689	32724	
2444	0	12684	32693	
2445	0	12691	32708	
2446	0	12696	32668	
2447	0	12688	32625	
2448	0	12684	32724	
2449	0	12693	32697	
2450	0	12696	32763	
2451	0	12688	32775	
2452	0	12684	32518	
2453	0	12692	32377	
2454	0	12698	32229	
2455	0	12692	31972	
2456	0	12684	32071	
2457	0	12695	32168	
2458	0	12696	31988	
2459	0	12692	31724	
2460	0	12688	31540	
2461	0	12690	31535	
2462	0	12696	31458	
2463	0	12688	31372	
2464	0	12686	31415	
2465	0	12684	31785	
2466	0	12694	32076	
2467	0	12688	32232	
2468	0	12684	32260	
2469	0	12686	32646	
2470	0	12690	33087	
2471	0	12685	33308	
2472	0	12681	33278	
2473	0	12687	33361	
2474	0	12688	33297	
2475	0	12686	33240	
2476	0	12681	33277	
2477	0	12688	33257	
2478	0	12690	33272	
2479	0	12685	33348	
2480	0	12680	33220	
2481	0	12688	33216	
2482	0	12692	33159	
2483	0	12685	33096	
2484	0	12680	33016	
2485	0	12684	32548	
2486	0	12688	31857	
2487	0	12686	31428	
2488	0	12682	29506	
2489	0	12692	28308	
2490	0	12704	26766	
2491	0	12698	25010	
2492	0	12695	25006	
2493	0	12704	26887	
2494	0	12700	29038	
2495	0	12685	33080	
2496	0	12681	36046	
2497	0	12686	36597	
2498	0	12688	35888	
2499	0	12684	34410	
2500	0	12678	33952	
2501	0	12686	33921	
2502	0	12688	33916	
2503	0	12681	33896	
2504	0	12680	33780	
2505	0	12684	33736	
2506	0	12684	33703	
2507	0	12680	33625	
2508	0	12676	33437	
2509	0	12686	33556	
2510	0	12688	33446	
2511	0	12684	33280	
2512	0	12678	33139	
2513	0	12685	33191	
2514	0	12680	33202	
2515	0	12680	33012	
2516	0	12676	32903	
2517	0	12680	32692	
2518	0	12686	32789	
2519	0	12681	32876	
2520	0	12679	32648	
2521	0	12680	32633	
2522	0	12685	32605	
2523	0	12680	32488	
2524	0	12676	32257	
2525	0	12684	32240	
2526	0	12680	32157	
2527	0	12680	32148	
2528	0	12672	31812	
2529	0	12682	31708	
2530	0	12688	31706	
2531	0	12680	31478	
2532	0	12672	31273	
2533	0	12680	31037	
2534	0	12684	30849	
2535	0	12677	30476	
2536	0	12676	30298	
2537	0	12684	30074	
2538	0	12686	29940	
2539	0	12680	29823	
2540	0	12675	29788	
2541	0	12680	29772	
2542	0	12688	29648	
2543	0	12680	29718	
2544	0	12676	29895	
2545	0	12679	30276	
2546	0	12684	30449	
2547	0	12676	30900	
2548	0	12672	31660	
2549	0	12678	32146	
2550	0	12680	32915	
2551	0	12676	33414	
2552	0	12676	33757	
2553	0	12680	34151	
2554	0	12680	34551	
2555	0	12677	34644	
2556	0	12674	34874	
2557	0	12676	34850	
2558	0	12682	34989	
2559	0	12676	34980	
2560	0	12672	34871	
2561	0	12678	34896	
2562	0	12681	34854	
2563	0	12676	34624	
2564	0	12672	34606	
2565	0	12678	34581	
2566	0	12680	34446	
2567	0	12673	34376	
2568	0	12668	34236	
2569	0	12680	34300	
2570	0	12676	34212	
2571	0	12672	33840	
2572	0	12672	33991	
2573	0	12676	34028	
2574	0	12680	33924	
2575	0	12669	33853	
2576	0	12670	33876	
2577	0	12676	33565	
2578	0	12680	33621	
2579	0	12670	33627	
2580	0	12668	33518	
2581	0	12674	33512	
2582	0	12676	33458	
2583	0	12668	33388	
2584	0	12668	33564	
2585	0	12677	33475	
2586	0	12680	33455	
2587	0	12668	33373	
2588	0	12669	33532	
2589	0	12672	33436	
2590	0	12678	33584	
2591	0	12666	33349	
2592	0	12668	33500	
2593	0	12672	33428	
2594	0	12680	33636	
2595	0	12672	33466	
2596	0	12664	33497	
2597	0	12672	33453	
2598	0	12674	33220	
2599	0	12670	33186	
2600	0	12666	33287	
2601	0	12674	33457	
2602	0	12676	33293	
2603	0	12668	33284	
2604	0	12666	33284	
2605	0	12670	33204	
2606	0	12678	33279	
2607	0	12671	33108	
2608	0	12665	33196	
2609	0	12672	33126	
2610	0	12674	32955	
2611	0	12668	33140	
2612	0	12664	33090	
2613	0	12670	33046	
2614	0	12672	33201	
2615	0	12666	33092	
2616	0	12662	32930	
2617	0	12676	33062	
2618	0	12677	32932	
2619	0	12664	32802	
2620	0	12664	32956	
2621	0	12668	32943	
2622	0	12672	32948	
2623	0	12664	32772	
2624	0	12664	32880	
2625	0	12669	32748	
2626	0	12669	33006	
2627	0	12664	32814	
2628	0	12661	32700	
2629	0	12668	32799	
2630	0	12673	32678	
2631	0	12662	32697	
2632	0	12662	32796	
2633	0	12666	32766	
2634	0	12674	32757	
2635	0	12661	32656	
2636	0	12665	32763	
2637	0	12666	32684	
2638	0	12672	32623	
2639	0	12664	32675	
2640	0	12660	32634	
2641	0	12668	32732	
2642	0	12670	32647	
2643	0	12664	32714	
2644	0	12660	32628	
2645	0	12669	32576	
2646	0	12668	32672	
2647	0	12664	32263	
2648	0	12661	32020	
2649	0	12668	32007	
2650	0	12666	32023	
2651	0	12660	32060	
2652	0	12662	31965	
2653	0	12664	31716	
2654	0	12672	31552	
2655	0	12664	31396	
2656	0	12660	31380	
2657	0	12664	31210	
2658	0	12672	31688	
2659	0	12660	31751	
2660	0	12660	32110	
2661	0	12664	32292	
2662	0	12667	32412	
2663	0	12660	32640	
2664	0	12656	32902	
2665	0	12660	33180	
2666	0	12665	33154	
2667	0	12660	33294	
2668	0	12656	33148	
2669	0	12660	33316	
2670	0	12664	33220	
2671	0	12656	33140	
2672	0	12656	33183	
2673	0	12662	33317	
2674	0	12665	33086	
2675	0	12660	33081	
2676	0	12656	33148	
2677	0	12660	32929	
2678	0	12664	32620	
2679	0	12656	31950	
2680	0	12660	31676	
2681	0	12664	30072	
2682	0	12668	27975	
2683	0	12664	26919	
2684	0	12668	25134	
2685	0	12677	24747	
2686	0	12676	26417	
2687	0	12668	27953	
2688	0	12660	32060	
2689	0	12662	35560	
2690	0	12662	36427	
2691	0	12656	36096	
2692	0	12655	35192	
2693	0	12661	34082	
2694	0	12664	33868	
2695	0	12656	33848	
2696	0	12653	33794	
2697	0	12662	33880	
2698	0	12664	33614	
2699	0	12653	33583	
2700	0	12654	33654	
2701	0	12658	33464	
2702	0	12660	33504	
2703	0	12653	33350	
2704	0	12652	33104	
2705	0	12660	33247	
2706	0	12664	32948	
2707	0	12654	33084	
2708	0	12654	33104	
2709	0	12661	32918	
2710	0	12666	32821	
2711	0	12656	32900	
2712	0	12656	32798	
2713	0	12664	32708	
2714	0	12661	32567	
2715	0	12656	32430	
2716	0	12656	32613	
2717	0	12667	32420	
2718	0	12664	32198	
2719	0	12654	32160	
2720	0	12661	32000	
2721	0	12670	31980	
2722	0	12665	31931	
2723	0	12653	31392	
2724	0	12656	31548	
2725	0	12665	31278	
2726	0	12664	31247	
2727	0	12656	30618	
2728	0	12658	30692	
2729	0	12661	30482	
2730	0	12664	30258	
2731	0	12658	29873	
2732	0	12658	30080	
2733	0	12661	29895	
2734	0	12666	29824	
2735	0	12654	29726	
2736	0	12656	30015	
2737	0	12664	29896	
2738	0	12665	30056	
2739	0	12654	30350	
2740	0	12656	30913	
2741	0	12666	31361	
2742	0	12668	31932	
2743	0	12654	32455	
2744	0	12655	33148	
2745	0	12661	33730	
2746	0	12666	34126	
2747	0	12652	34417	
2748	0	12656	34778	
2749	0	12663	34973	
2750	0	12661	34917	
2751	0	12652	34812	
2752	0	12656	34915	
2753	0	12664	34904	
2754	0	12662	34845	
2755	0	12656	34733	
2756	0	12654	34750	
2757	0	12661	34748	
2758	0	12658	34631	
2759	0	12656	34431	
2760	0	12656	34463	
2761	0	12661	34294	
2762	0	12664	34093	
2763	0	12654	34172	
2764	0	12656	34092	
2765	0	12664	33958	
2766	0	12660	33844	
2767	0	12652	33828	
2768	0	12656	33887	
2769	0	12658	33810	
2770	0	12664	33799	
2771	0	12657	33669	
2772	0	12654	33543	
2773	0	12664	33493	
2774	0	12664	33492	
2775	0	12652	33414	
2776	0	12656	33653	
2777	0	12662	33542	
2778	0	12660	33573	
2779	0	12655	33266	
2780	0	12653	33342	
2781	0	12660	33530	
2782	0	12659	33380	
2783	0	12648	33200	
2784	0	12657	33492	
2785	0	12660	33576	
2786	0	12660	33592	
2787	0	12649	33332	
2788	0	12652	33453	
2789	0	12660	33440	
2790	0	12657	33282	
2791	0	12653	33237	
2792	0	12656	33380	
2793	0	12657	33396	
2794	0	12663	33314	
2795	0	12655	33189	
2796	0	12656	33148	
2797	0	12662	33319	
2798	0	12660	33072	
2799	0	12652	33193	
2800	0	12656	33159	
2801	0	12664	33256	
2802	0	12660	33026	
2803	0	12654	32822	
2804	0	12656	33088	
2805	0	12660	33088	
2806	0	12658	33004	
2807	0	12652	32929	
2808	0	12657	33090	
2809	0	12658	33005	
2810	0	12657	32817	
2811	0	12650	32830	
2812	0	12653	32966	
2813	0	12660	33060	
2814	0	12662	32928	
2815	0	12653	32864	
2816	0	12652	32813	
2817	0	12664	33031	
2818	0	12661	32848	
2819	0	12654	32676	
2820	0	12657	32760	
2821	0	12656	32929	
2822	0	12660	32802	
2823	0	12652	32730	
2824	0	12652	32886	
2825	0	12660	32871	
2826	0	12660	32631	
2827	0	12651	32828	
2828	0	12656	32750	
2829	0	12662	32676	
2830	0	12657	32272	
2831	0	12650	32001	
2832	0	12653	32061	
2833	0	12661	32111	
2834	0	12656	31907	
2835	0	12654	31860	
2836	0	12656	31920	
2837	0	12661	31818	
2838	0	12661	31508	
2839	0	12650	31376	
2840	0	12656	31404	
2841	0	12660	31756	
2842	0	12657	31976	
2843	0	12648	32167	
2844	0	12652	32368	
2845	0	12660	32548	
2846	0	12660	32964	
2847	0	12650	33166	
2848	0	12650	33226	
2849	0	12657	33177	
2850	0	12656	33306	
2851	0	12652	33164	
2852	0	12654	33329	
2853	0	12657	33226	
2854	0	12658	33268	
2855	0	12644	33004	
2856	0	12654	33359	
2857	0	12652	33287	
2858	0	12654	33186	
2859	0	12650	33014	
2860	0	12652	32869	
2861	0	12660	32193	
2862	0	12656	31562	
2863	0	12648	30087	
2864	0	12657	28338	
2865	0	12666	27455	
2866	0	12672	25540	
2867	0	12668	24952	
2868	0	12668	27149	
2869	0	12670	28572	
2870	0	12660	32300	
2871	0	12646	35278	
2872	0	12650	36324	
2873	0	12658	36046	
2874	0	12656	35148	
2875	0	12646	34018	
2876	0	12648	33844	
2877	0	12652	33815	
2878	0	12650	33741	
2879	0	12646	33668	
2880	0	12648	33740	
2881	0	12653	33676	
2882	0	12649	33604	
2883	0	12648	33351	
2884	0	12648	33476	
2885	0	12648	33322	
2886	0	12650	33328	
2887	0	12640	33177	
2888	0	12644	33051	
2889	0	12654	33136	
2890	0	12650	32943	
2891	0	12641	32912	
2892	0	12648	32798	
2893	0	12656	32775	
2894	0	12652	32796	
2895	0	12644	32631	
2896	0	12648	32656	
2897	0	12650	32688	
2898	0	12652	32588	
2899	0	12640	32428	
2900	0	12648	32288	
2901	0	12650	32168	
2902	0	12652	32032	
2903	0	12638	31870	
2904	0	12646	31829	
2905	0	12656	31790	
2906	0	12648	31493	
2907	0	12641	31289	
2908	0	12645	31012	
2909	0	12650	30953	
2910	0	12648	30617	
2911	0	12644	30310	
2912	0	12644	30087	
2913	0	12650	29890	
2914	0	12650	29900	
2915	0	12642	29802	
2916	0	12646	29775	
2917	0	12646	29784	
2918	0	12644	29741	
2919	0	12638	29784	
2920	0	12644	30106	
2921	0	12652	29834	
2922	0	12642	29588	
2923	0	12642	29630	
2924	0	12642	31398	
2925	0	12648	32672	
2926	0	12645	34183	
2927	0	12636	34589	
2928	0	12640	34962	
2929	0	12648	35069	
2930	0	12648	35240	
2931	0	12636	35129	
2932	0	12644	35237	
2933	0	12648	35324	
2934	0	12646	35174	
2935	0	12636	34996	
2936	0	12644	35069	
2937	0	12641	34966	
2938	0	12640	34823	
2939	0	12636	34592	
2940	0	12640	34649	
2941	0	12648	34567	
2942	0	12640	34288	
2943	0	12632	34248	
2944	0	12640	34289	
2945	0	12644	34196	
2946	0	12641	34116	
2947	0	12634	33963	
2948	0	12637	33900	
2949	0	12648	33832	
2950	0	12640	33784	
2951	0	12632	33820	
2952	0	12640	33777	
2953	0	12646	33740	
2954	0	12637	33336	
2955	0	12632	33415	
2956	0	12640	33584	
2957	0	12643	33676	
2958	0	12638	33404	
2959	0	12636	33336	
2960	0	12640	33458	
2961	0	12644	33484	
2962	0	12640	33488	
2963	0	12634	33358	
2964	0	12637	33396	
2965	0	12644	33348	
2966	0	12640	33384	
2967	0	12630	33325	
2968	0	12637	33221	
2969	0	12640	33219	
2970	0	12636	33301	
2971	0	12629	33280	
2972	0	12636	33324	
2973	0	12640	33332	
2974	0	12640	33274	
2975	0	12630	33176	
2976	0	12636	33301	
2977	0	12638	33332	
2978	0	12640	33142	
2979	0	12629	33129	
2980	0	12635	33204	
2981	0	12640	33215	
2982	0	12640	33009	
2983	0	12628	33026	
2984	0	12634	32845	
2985	0	12644	33031	
2986	0	12639	33024	
2987	0	12628	33079	
2988	0	12634	33036	
2989	0	12636	32989	
2990	0	12632	33068	
2991	0	12632	32900	
2992	0	12632	32988	
2993	0	12640	32941	
2994	0	12633	32900	
2995	0	12627	32901	
2996	0	12632	32874	
2997	0	12640	32874	
2998	0	12632	32720	
2999	0	12628	32450	
3000	0	12633	32764	
3001	0	12634	32836	
3002	0	12630	32819	
3003	0	12625	32593	
3004	0	12629	32807	
3005	0	12636	32736	
3006	0	12630	32763	
3007	0	12623	32721	
3008	0	12629	32748	
3009	0	12636	32746	
3010	0	12632	32632	
3011	0	12620	32775	
3012	0	12632	32772	
3013	0	12630	32694	
3014	0	12628	32636	
3015	0	12626	32614	
3016	0	12629	32608	
3017	0	12632	32780	
3018	0	12632	32660	
3019	0	12625	32496	
3020	0	12628	32540	
3021	0	12630	32655	
3022	0	12629	32696	
3023	0	12620	32597	
3024	0	12626	32580	
3025	0	12632	32647	
3026	0	12628	32557	
3027	0	12624	32490	
3028	0	12628	32108	
3029	0	12632	32128	
3030	0	12628	31806	
3031	0	12618	31951	
3032	0	12628	32094	
3033	0	12634	32070	
3034	0	12628	31751	
3035	0	12616	31321	
3036	0	12629	31381	
3037	0	12634	31429	
3038	0	12628	31324	
3039	0	12626	31266	
3040	0	12628	31447	
3041	0	12632	32110	
3042	0	12624	31681	
3043	0	12622	30240	
3044	0	12629	29132	
3045	0	12630	28712	
3046	0	12621	30140	
3047	0	12616	33392	
3048	0	12626	33420	
3049	0	12628	32334	
3050	0	12624	32806	
3051	0	12616	34988	
3052	0	12624	35564	
3053	0	12624	34823	
3054	0	12616	35213	
3055	0	12614	36384	
3056	0	12624	36092	
3057	0	12628	34950	
3058	0	12624	33190	
3059	0	12620	32197	
3060	0	12624	31817	
3061	0	12632	29278	
3062	0	12626	28268	
3063	0	12627	26101	
3064	0	12640	25052	
3065	0	12644	26502	
3066	0	12640	28890	
3067	0	12623	31666	
3068	0	12624	34340	
3069	0	12628	35901	
3070	0	12616	36070	
3071	0	12614	35752	
3072	0	12620	34396	
3073	0	12626	33705	
3074	0	12624	33594	
3075	0	12612	33891	
3076	0	12622	34857	
3077	0	12624	34528	
3078	0	12620	33704	
3079	0	12616	32962	
3080	0	12624	31964	
3081	0	12625	31412	
3082	0	12622	31794	
3083	0	12613	32908	
3084	0	12620	33615	
3085	0	12620	33698	
3086	0	12616	34341	
3087	0	12612	33740	
3088	0	12616	32837	
3089	0	12620	33148	
3090	0	12618	35048	
3091	0	12612	35001	
3092	0	12618	34348	
3093	0	12624	33152	
3094	0	12616	33092	
3095	0	12606	32972	
3096	0	12618	32692	
3097	0	12620	32457	
3098	0	12618	32031	
3099	0	12610	32121	
3100	0	12617	32128	
3101	0	12618	31656	
3102	0	12616	31493	
3103	0	12614	31270	
3104	0	12616	30906	
3105	0	12620	29940	
3106	0	12613	28576	
3107	0	12608	28732	
3108	0	12616	30183	
3109	0	12621	29348	
3110	0	12611	29004	
3111	0	12610	29183	
3112	0	12614	28428	
3113	0	12614	31095	
3114	0	12612	31038	
3115	0	12605	29745	
3116	0	12612	31469	
3117	0	12616	31109	
3118	0	12610	29313	
3119	0	12606	29764	
3120	0	12614	31880	
3121	0	12616	33073	
3122	0	12612	32972	
3123	0	12604	32964	
3124	0	12609	33853	
3125	0	12616	34008	
3126	0	12612	34238	
3127	0	12608	35048	
3128	0	12615	34638	
3129	0	12612	33972	
3130	0	12606	33936	
3131	0	12604	34294	
3132	0	12612	35079	
3133	0	12616	34044	
3134	0	12608	34311	
3135	0	12604	35416	
3136	0	12612	33924	
3137	0	12613	32606	
3138	0	12608	33168	
3139	0	12602	32409	
3140	0	12604	34434	
3141	0	12609	35632	
3142	0	12605	34596	
3143	0	12602	34792	
3144	0	12612	33108	
3145	0	12616	31211	
3146	0	12600	33624	
3147	0	12602	35134	
3148	0	12608	35196	
3149	0	12612	34976	
3150	0	12608	34285	
3151	0	12600	35226	
3152	0	12608	35678	
3153	0	12614	35382	
3154	0	12606	34012	
3155	0	12603	33439	
3156	0	12610	34014	
3157	0	12604	33885	
3158	0	12606	32888	
3159	0	12598	32448	
3160	0	12604	33016	
3161	0	12608	35004	
3162	0	12604	33692	
3163	0	12602	31913	
3164	0	12606	32535	
3165	0	12610	33659	
3166	0	12602	34874	
3167	0	12598	35008	
3168	0	12608	34998	
3169	0	12608	33761	
3170	0	12604	33331	
3171	0	12600	33372	
3172	0	12604	33287	
3173	0	12608	33664	
3174	0	12601	33532	
3175	0	12604	33396	
3176	0	12604	33460	
3177	0	12613	33287	
3178	0	12602	31780	
3179	0	12596	31436	
3180	0	12605	32189	
3181	0	12608	32701	
3182	0	12597	33624	
3183	0	12598	33433	
3184	0	12602	32492	
3185	0	12604	32290	
3186	0	12598	32516	
3187	0	12596	33274	
3188	0	12600	34663	
3189	0	12608	33671	
3190	0	12600	31144	
3191	0	12594	30558	
3192	0	12604	32458	
3193	0	12606	34558	
3194	0	12600	33700	
3195	0	12596	31950	
3196	0	12602	33116	
3197	0	12600	34420	
3198	0	12596	34065	
3199	0	12596	33282	
3200	0	12605	32654	
3201	0	12606	32436	
3202	0	12596	33658	
3203	0	12595	33542	
3204	0	12604	32916	
3205	0	12605	32066	
3206	0	12598	31446	
3207	0	12592	31836	
3208	0	12601	31588	
3209	0	12605	31340	
3210	0	12593	32220	
3211	0	12590	32476	
3212	0	12601	33842	
3213	0	12600	34050	
3214	0	12595	33932	
3215	0	12596	33722	
3216	0	12600	33140	
3217	0	12600	33372	
3218	0	12596	33391	
3219	0	12594	33358	
3220	0	12600	32500	
3221	0	12602	32216	
3222	0	12596	32534	
3223	0	12596	31716	
3224	0	12600	30471	
3225	0	12600	30932	
3226	0	12593	31856	
3227	0	12592	31522	
3228	0	12596	30637	
3229	0	12600	30855	
3230	0	12592	31345	
3231	0	12589	32839	
3232	0	12597	32280	
3233	0	12602	31176	
3234	0	12592	32220	
3235	0	12590	33736	
3236	0	12596	33300	
3237	0	12596	32360	
3238	0	12593	32033	
3239	0	12592	31446	
3240	0	12592	32253	
3241	0	12596	33268	
3242	0	12592	33863	
3243	0	12590	32464	
3244	0	12596	30423	
3245	0	12596	30956	
3246	0	12589	33465	
3247	0	12588	32420	
3248	0	12589	33657	
3249	0	12592	34944	
3250	0	12585	35473	
3251	0	12586	35582	
3252	0	12592	34300	
3253	0	12596	33084	
3254	0	12590	32808	
3255	0	12584	32662	
3256	0	12596	31865	
3257	0	12600	30008	
3258	0	12596	27318	
3259	0	12594	26305	
3260	0	12604	25214	
3261	0	12608	25261	
3262	0	12604	28284	
3263	0	12600	29376	
3264	0	12598	32224	
3265	0	12590	35420	
3266	0	12586	36697	
3267	0	12588	35276	
3268	0	12592	34086	
3269	0	12592	34695	
3270	0	12585	35168	
3271	0	12586	34567	
3272	0	12596	33360	
3273	0	12596	33500	
3274	0	12585	34093	
3275	0	12586	34308	
3276	0	12592	32253	
3277	0	12592	31072	
3278	0	12584	31399	
3279	0	12581	33740	
3280	0	12586	34116	
3281	0	12593	32656	
3282	0	12580	32833	
3283	0	12578	33974	
3284	0	12592	34032	
3285	0	12594	32096	
3286	0	12583	32196	
3287	0	12578	33577	
3288	0	12589	33530	
3289	0	12588	33709	
3290	0	12580	33056	
3291	0	12586	31364	
3292	0	12589	29158	
3293	0	12586	29460	
3294	0	12578	32700	
3295	0	12579	34352	
3296	0	12588	34246	
3297	0	12592	33232	
3298	0	12582	32396	
3299	0	12584	31399	
3300	0	12586	30632	
3301	0	12588	30810	
3302	0	12580	31228	
3303	0	12584	31482	
3304	0	12581	31126	
3305	0	12589	29968	
3306	0	12580	28500	
3307	0	12580	27780	
3308	0	12584	28740	
3309	0	12588	28608	
3310	0	12574	29412	
3311	0	12577	30452	
3312	0	12579	31440	
3313	0	12586	31516	
3314	0	12576	30904	
3315	0	12578	30582	
3316	0	12584	30244	
3317	0	12586	30642	
3318	0	12576	31401	
3319	0	12580	32296	
3320	0	12584	32337	
3321	0	12584	31745	
3322	0	12576	32944	
3323	0	12574	34013	
3324	0	12581	34419	
3325	0	12580	36143	
3326	0	12577	36166	
3327	0	12580	33693	
3328	0	12580	33207	
3329	0	12582	35728	
3330	0	12573	37268	
3331	0	12576	36782	
3332	0	12583	35607	
3333	0	12584	34684	
3334	0	12576	34448	
3335	0	12576	34116	
3336	0	12584	33733	
3337	0	12581	34372	
3338	0	12576	34564	
3339	0	12576	34412	
3340	0	12582	34162	
3341	0	12584	33625	
3342	0	12578	31586	
3343	0	12572	31881	
3344	0	12576	34668	
3345	0	12584	35358	
3346	0	12570	34819	
3347	0	12576	34406	
3348	0	12580	34064	
3349	0	12580	34108	
3350	0	12573	33280	
3351	0	12573	32967	
3352	0	12578	33764	
3353	0	12578	33905	
3354	0	12576	33384	
3355	0	12572	33276	
3356	0	12577	33140	
3357	0	12580	33470	
3358	0	12574	32717	
3359	0	12576	30727	
3360	0	12574	31280	
3361	0	12578	32839	
3362	0	12572	31845	
3363	0	12572	32458	
3364	0	12576	33972	
3365	0	12576	35222	
3366	0	12568	35944	
3367	0	12573	35416	
3368	0	12578	33996	
3369	0	12577	32552	
3370	0	12565	32741	
3371	0	12568	33192	
3372	0	12574	34116	
3373	0	12574	34200	
3374	0	12571	32252	
3375	0	12569	30762	
3376	0	12573	30504	
3377	0	12576	31869	
3378	0	12564	34593	
3379	0	12568	35516	
3380	0	12572	34728	
3381	0	12572	33636	
3382	0	12569	33073	
3383	0	12564	33616	
3384	0	12576	34016	
3385	0	12572	33558	
3386	0	12564	33500	
3387	0	12569	33116	
3388	0	12577	32900	
3389	0	12574	32238	
3390	0	12562	32660	
3391	0	12572	32694	
3392	0	12574	32610	
3393	0	12572	33046	
3394	0	12568	33444	
3395	0	12569	32984	
3396	0	12574	30757	
3397	0	12576	31161	
3398	0	12568	31608	
3399	0	12568	33237	
3400	0	12568	34388	
3401	0	12572	34400	
3402	0	12566	33220	
3403	0	12568	31960	
3404	0	12572	33165	
3405	0	12572	33472	
3406	0	12564	33147	
3407	0	12566	32958	
3408	0	12572	32681	
3409	0	12570	32547	
3410	0	12566	32226	
3411	0	12566	32076	
3412	0	12576	31784	
3413	0	12572	31349	
3414	0	12566	31048	
3415	0	12569	30760	
3416	0	12574	31136	
3417	0	12570	30966	
3418	0	12562	30977	
3419	0	12568	31152	
3420	0	12568	31880	
3421	0	12572	32497	
3422	0	12560	32706	
3423	0	12564	32936	
3424	0	12566	33226	
3425	0	12572	32751	
3426	0	12564	31782	
3427	0	12562	32775	
3428	0	12569	33776	
3429	0	12568	33862	
3430	0	12557	33559	
3431	0	12558	33365	
3432	0	12570	33340	
3433	0	12568	33320	
3434	0	12557	32983	
3435	0	12562	33048	
3436	0	12572	32694	
3437	0	12568	31926	
3438	0	12558	31192	
3439	0	12564	30173	
3440	0	12573	28266	
3441	0	12576	27420	
3442	0	12576	25636	
3443	0	12580	25324	
3444	0	12588	26842	
3445	0	12584	27833	
3446	0	12562	31794	
3447	0	12561	35756	
3448	0	12568	36599	
3449	0	12566	36257	
3450	0	12558	34905	
3451	0	12559	33832	
3452	0	12565	33498	
3453	0	12568	33729	
3454	0	12560	33415	
3455	0	12561	33658	
3456	0	12566	33607	
3457	0	12564	33639	
3458	0	12556	33423	
3459	0	12560	33190	
3460	0	12562	33230	
3461	0	12560	33068	
3462	0	12556	32806	
3463	0	12557	32973	
3464	0	12564	33008	
3465	0	12562	33031	
3466	0	12554	32848	
3467	0	12557	32382	
3468	0	12566	32293	
3469	0	12562	32775	
3470	0	12553	32725	
3471	0	12558	32537	
3472	0	12564	32388	
3473	0	12564	32344	
3474	0	12552	32216	
3475	0	12560	32263	
3476	0	12568	31832	
3477	0	12560	31707	
3478	0	12556	31538	
3479	0	12556	32138	
3480	0	12561	31924	
3481	0	12558	31584	
3482	0	12553	31296	
3483	0	12552	31020	
3484	0	12561	30854	
3485	0	12564	30969	
3486	0	12554	30621	
3487	0	12560	30324	
3488	0	12567	30208	
3489	0	12563	29828	
3490	0	12556	29639	
3491	0	12556	29742	
3492	0	12562	29789	
3493	0	12560	29672	
3494	0	12552	29608	
3495	0	12557	29779	
3496	0	12561	29770	
3497	0	12560	30092	
3498	0	12550	30608	
3499	0	12553	31260	
3500	0	12558	31869	
3501	0	12558	32304	
3502	0	12549	32726	
3503	0	12556	33108	
3504	0	12561	33404	
3505	0	12564	33138	
3506	0	12556	31716	
3507	0	12556	29996	
3508	0	12556	31166	
3509	0	12552	35636	
3510	0	12542	38228	
3511	0	12550	38110	
3512	0	12554	37678	
3513	0	12556	36785	
3514	0	12550	36119	
3515	0	12552	35730	
3516	0	12556	35329	
3517	0	12556	34852	
3518	0	12548	34456	
3519	0	12550	34389	
3520	0	12557	34344	
3521	0	12556	34220	
3522	0	12548	33900	
3523	0	12556	33927	
3524	0	12556	33960	
3525	0	12556	33684	
3526	0	12552	33672	
3527	0	12552	33813	
3528	0	12556	33856	
3529	0	12556	33671	
3530	0	12546	33300	
3531	0	12550	33422	
3532	0	12559	33429	
3533	0	12552	33642	
3534	0	12548	32295	
3535	0	12554	30902	
3536	0	12556	31820	
3537	0	12556	33943	
3538	0	12550	33677	
3539	0	12553	32604	
3540	0	12554	32252	
3541	0	12552	33608	
3542	0	12544	34860	
3543	0	12550	35572	
3544	0	12556	35063	
3545	0	12558	34383	
3546	0	12548	33986	
3547	0	12550	33854	
3548	0	12556	33608	
3549	0	12553	33436	
3550	0	12540	33188	
3551	0	12549	33284	
3552	0	12554	33217	
3553	0	12552	33128	
3554	0	12543	33065	
3555	0	12549	33108	
3556	0	12554	33146	
3557	0	12549	33055	
3558	0	12540	32959	
3559	0	12547	33020	
3560	0	12557	33092	
3561	0	12551	32892	
3562	0	12544	32900	
3563	0	12550	32950	
3564	0	12556	32932	
3565	0	12556	32820	
3566	0	12544	32802	
3567	0	12548	32888	
3568	0	12556	32876	
3569	0	12552	32775	
3570	0	12541	32701	
3571	0	12548	32814	
3572	0	12555	32822	
3573	0	12553	32844	
3574	0	12540	32818	
3575	0	12548	32792	
3576	0	12556	32654	
3577	0	12552	32531	
3578	0	12542	32108	
3579	0	12550	32072	
3580	0	12552	32032	
3581	0	12549	32304	
3582	0	12538	32104	
3583	0	12544	31927	
3584	0	12556	31946	
3585	0	12550	31620	
3586	0	12540	31476	
3587	0	12548	31365	
3588	0	12554	31409	
3589	0	12549	31684	
3590	0	12538	31900	
3591	0	12546	32135	
3592	0	12548	32300	
3593	0	12548	32538	
3594	0	12538	32855	
3595	0	12544	33150	
3596	0	12549	33348	
3597	0	12546	33415	
3598	0	12537	33381	
3599	0	12548	33408	
3600	0	12550	33400	
3601	0	12546	33350	
3602	0	12537	33340	
3603	0	12544	33287	
3604	0	12546	33252	
3605	0	12542	33335	
3606	0	12540	33068	
3607	0	12546	32494	
3608	0	12552	31510	
3609	0	12547	31044	
3610	0	12541	28856	
3611	0	12552	28514	
3612	0	12561	26701	
3613	0	12556	25745	
3614	0	12552	27156	
3615	0	12558	28486	
3616	0	12552	31188	
3617	0	12548	34564	
3618	0	12536	36785	
3619	0	12544	36441	
3620	0	12549	35352	
3621	0	12548	34248	
3622	0	12536	34020	
3623	0	12540	33799	
3624	0	12545	33917	
3625	0	12542	33778	
3626	0	12529	33736	
3627	0	12538	33601	
3628	0	12544	33662	
3629	0	12540	33573	
3630	0	12533	33455	
3631	0	12537	33357	
3632	0	12544	33274	
3633	0	12544	33099	
3634	0	12536	33052	
3635	0	12541	33031	
3636	0	12544	33072	
3637	0	12544	32860	
3638	0	12532	32813	
3639	0	12540	32914	
3640	0	12544	32616	
3641	0	12536	32487	
3642	0	12532	32138	
3643	0	12540	32340	
3644	0	12542	32396	
3645	0	12536	32460	
3646	0	12526	32461	
3647	0	12537	32436	
3648	0	12542	32263	
3649	0	12536	32052	
3650	0	12528	31840	
3651	0	12534	31783	
3652	0	12548	31604	
3653	0	12536	31218	
3654	0	12532	31020	
3655	0	12540	30745	
3656	0	12542	30632	
3657	0	12538	30308	
3658	0	12532	30009	
3659	0	12540	29856	
3660	0	12540	29702	
3661	0	12538	29551	
3662	0	12530	29544	
3663	0	12538	29412	
3664	0	12542	29412	
3665	0	12536	29588	
3666	0	12528	29734	
3667	0	12536	29944	
3668	0	12545	30440	
3669	0	12534	31096	
3670	0	12532	31751	
3671	0	12536	32385	
3672	0	12540	32860	
3673	0	12532	33477	
3674	0	12529	33886	
3675	0	12534	34276	
3676	0	12540	34794	
3677	0	12532	34823	
3678	0	12530	34844	
3679	0	12533	34920	
3680	0	12536	34984	
3681	0	12533	34975	
3682	0	12525	34966	
3683	0	12530	34960	
3684	0	12538	34788	
3685	0	12532	34625	
3686	0	12528	34548	
3687	0	12534	34564	
3688	0	12540	34580	
3689	0	12533	34384	
3690	0	12530	34221	
3691	0	12534	34141	
3692	0	12538	34132	
3693	0	12534	34155	
3694	0	12528	34037	
3695	0	12532	33912	
3696	0	12538	33592	
3697	0	12532	33252	
3698	0	12527	33332	
3699	0	12532	33746	
3700	0	12536	34152	
3701	0	12532	34118	
3702	0	12528	33959	
3703	0	12533	33476	
3704	0	12534	33198	
3705	0	12530	33368	
3706	0	12528	33762	
3707	0	12534	33984	
3708	0	12537	33924	
3709	0	12534	33857	
3710	0	12524	33695	
3711	0	12537	33658	
3712	0	12533	33462	
3713	0	12530	33428	
3714	0	12525	33330	
3715	0	12528	33415	
3716	0	12534	33472	
3717	0	12529	33403	
3718	0	12526	33322	
3719	0	12528	33388	
3720	0	12536	33429	
3721	0	12528	33266	
3722	0	12525	33256	
3723	0	12529	33336	
3724	0	12534	33268	
3725	0	12529	33157	
3726	0	12524	33071	
3727	0	12533	33116	
3728	0	12536	33014	
3729	0	12528	33052	
3730	0	12526	32920	
3731	0	12532	32968	
3732	0	12532	33225	
3733	0	12528	33166	
3734	0	12524	33206	
3735	0	12532	33064	
3736	0	12534	33008	
3737	0	12526	32919	
3738	0	12526	32951	
3739	0	12532	33050	
3740	0	12532	32964	
3741	0	12527	32786	
3742	0	12528	32512	
3743	0	12536	32272	
3744	0	12536	32116	
3745	0	12530	32241	
3746	0	12524	32294	
3747	0	12532	32380	
3748	0	12540	31948	
3749	0	12534	31790	
3750	0	12526	31625	
3751	0	12532	31647	
3752	0	12541	31441	
3753	0	12528	31396	
3754	0	12522	31860	
3755	0	12531	32176	
3756	0	12534	32344	
3757	0	12530	32360	
3758	0	12526	32332	
3759	0	12528	32591	
3760	0	12536	33012	
3761	0	12528	33490	
3762	0	12525	33812	
3763	0	12529	33868	
3764	0	12532	33772	
3765	0	12529	33534	
3766	0	12524	33535	
3767	0	12530	33444	
3768	0	12530	33404	
3769	0	12526	33368	
3770	0	12521	33372	
3771	0	12532	33004	
3772	0	12532	32100	
3773	0	12530	31369	
3774	0	12530	30228	
3775	0	12537	28514	
3776	0	12544	27900	
3777	0	12537	26048	
3778	0	12536	25630	
3779	0	12546	28008	
3780	0	12548	29348	
3781	0	12529	33049	
3782	0	12528	36128	
3783	0	12534	36935	
3784	0	12532	36406	
3785	0	12530	35002	
3786	0	12528	34084	
3787	0	12530	33836	
3788	0	12536	33742	
3789	0	12524	33836	
3790	0	12522	33872	
3791	0	12530	33508	
3792	0	12532	33252	
3793	0	12530	33066	
3794	0	12524	33135	
3795	0	12528	33282	
3796	0	12537	33200	
3797	0	12528	33184	
3798	0	12524	33363	
3799	0	12534	33276	
3800	0	12536	33170	
3801	0	12528	33058	
3802	0	12528	32924	
3803	0	12534	32869	
3804	0	12538	32736	
3805	0	12530	32622	
3806	0	12526	32534	
3807	0	12537	32371	
3808	0	12534	32244	
3809	0	12528	32087	
3810	0	12530	32072	
3811	0	12536	32176	
3812	0	12540	32057	
3813	0	12532	31780	
3814	0	12528	31461	
3815	0	12533	31385	
3816	0	12539	31528	
3817	0	12530	31431	
3818	0	12533	31448	
3819	0	12536	31157	
3820	0	12538	30895	
3821	0	12529	30492	
3822	0	12530	30245	
3823	0	12537	30060	
3824	0	12540	29700	
3825	0	12532	29374	
3826	0	12534	29384	
3827	0	12540	29438	
3828	0	12540	29405	
3829	0	12536	29528	
3830	0	12532	29760	
3831	0	12534	30071	
3832	0	12540	30531	
3833	0	12529	30855	
3834	0	12532	31464	
3835	0	12536	31943	
3836	0	12539	32684	
3837	0	12532	33082	
3838	0	12534	33888	
3839	0	12540	34327	
3840	0	12541	34557	
3841	0	12536	34564	
3842	0	12532	34662	
3843	0	12545	34860	
3844	0	12545	34897	
3845	0	12536	34775	
3846	0	12532	34509	
3847	0	12537	34652	
3848	0	12542	34798	
3849	0	12538	34710	
3850	0	12533	34564	
3851	0	12538	34524	
3852	0	12546	34622	
3853	0	12536	34407	
3854	0	12538	34434	
3855	0	12546	34311	
3856	0	12546	34276	
3857	0	12536	34045	
3858	0	12540	34209	
3859	0	12542	33891	
3860	0	12546	33768	
3861	0	12540	33756	
3862	0	12540	33712	
3863	0	12546	33746	
3864	0	12550	33645	
3865	0	12540	33568	
3866	0	12534	33548	
3867	0	12546	33741	
3868	0	12542	33383	
3869	0	12540	33313	
3870	0	12535	33516	
3871	0	12544	33560	
3872	0	12548	33653	
3873	0	12540	33760	
3874	0	12541	33420	
3875	0	12545	33404	
3876	0	12548	33568	
3877	0	12544	33495	
3878	0	12540	33543	
3879	0	12548	33482	
3880	0	12552	33468	
3881	0	12542	33392	
3882	0	12542	33475	
3883	0	12551	33246	
3884	0	12549	33190	
3885	0	12544	32942	
3886	0	12544	33148	
3887	0	12552	33508	
3888	0	12548	33725	
3889	0	12547	33611	
3890	0	12540	33743	
3891	0	12548	33543	
3892	0	12552	33537	
3893	0	12548	33348	
3894	0	12546	33222	
3895	0	12552	33287	
3896	0	12560	32950	
3897	0	12547	32996	
3898	0	12545	32934	
3899	0	12556	33224	
3900	0	12556	33087	
3901	0	12548	32784	
3902	0	12552	32612	
3903	0	12557	32567	
3904	0	12560	32270	
3905	0	12552	32284	
3906	0	12553	32432	
3907	0	12560	32314	
3908	0	12560	32196	
3909	0	12552	31968	
3910	0	12552	31495	
3911	0	12560	31529	
3912	0	12566	31577	
3913	0	12554	31476	
3914	0	12556	31948	
3915	0	12565	32429	
3916	0	12564	32695	
3917	0	12555	32586	
3918	0	12557	32928	
3919	0	12561	33074	
3920	0	12564	33652	
3921	0	12560	33488	
3922	0	12562	33588	
3923	0	12561	33580	
3924	0	12565	33399	
3925	0	12556	33654	
3926	0	12562	33543	
3927	0	12566	33372	
3928	0	12568	33320	
3929	0	12558	32732	
3930	0	12562	32756	
3931	0	12564	33044	
3932	0	12570	32735	
3933	0	12560	32240	
3934	0	12565	31504	
3935	0	12573	29265	
3936	0	12578	28628	
3937	0	12576	26101	
3938	0	12577	25536	
3939	0	12588	26576	
3940	0	12584	27831	
3941	0	12570	30936	
3942	0	12565	34584	
3943	0	12574	36532	
3944	0	12574	36638	
3945	0	12568	35676	
3946	0	12567	34463	
3947	0	12572	33758	
3948	0	12580	33938	
3949	0	12570	33648	
3950	0	12572	33848	
3951	0	12576	33673	
3952	0	12578	33537	
3953	0	12566	33343	
3954	0	12568	33644	
3955	0	12577	33449	
3956	0	12576	33324	
3957	0	12568	32953	
3958	0	12572	33287	
3959	0	12580	33062	
3960	0	12584	32880	
3961	0	12574	32830	
3962	0	12572	32857	
3963	0	12584	32686	
3964	0	12584	32708	
3965	0	12578	32384	
3966	0	12576	32560	
3967	0	12586	32616	
3968	0	12588	32590	
3969	0	12576	32368	
3970	0	12576	32321	
3971	0	12586	32153	
3972	0	12585	31888	
3973	0	12580	31668	
3974	0	12580	31796	
3975	0	12588	31500	
3976	0	12588	31548	
3977	0	12578	31402	
3978	0	12580	31464	
3979	0	12593	31248	
3980	0	12588	30935	
3981	0	12584	30487	
3982	0	12585	30508	
3983	0	12590	30301	
3984	0	12590	30106	
3985	0	12586	29908	
3986	0	12586	29784	
3987	0	12592	29724	
3988	0	12596	29881	
3989	0	12584	29958	
3990	0	12590	29974	
3991	0	12594	30130	
3992	0	12592	30215	
3993	0	12584	30686	
3994	0	12592	31239	
3995	0	12594	31787	
3996	0	12593	32519	
3997	0	12586	33031	
3998	0	12590	33333	
3999	0	12596	33844	
4000	0	12600	34300	
4001	0	12592	34384	
4002	0	12596	34866	
4003	0	12598	34796	
4004	0	12604	34712	
4005	0	12592	34780	
4006	0	12596	34815	
4007	0	12600	34601	
4008	0	12596	34484	
4009	0	12594	34494	
4010	0	12596	34660	
4011	0	12600	34494	
4012	0	12604	34334	
4013	0	12594	34183	
4014	0	12598	34192	
4015	0	12601	33964	
4016	0	12605	34064	
4017	0	12596	33732	
4018	0	12598	33557	
4019	0	12606	33692	
4020	0	12609	33700	
4021	0	12600	33448	
4022	0	12600	33671	
4023	0	12608	33743	
4024	0	12605	33462	
4025	0	12600	33476	
4026	0	12601	33410	
4027	0	12607	33473	
4028	0	12612	33356	
4029	0	12596	33260	
4030	0	12602	33500	
4031	0	12612	33459	
4032	0	12608	33357	
4033	0	12604	33212	
4034	0	12606	33424	
4035	0	12608	33415	
4036	0	12612	33447	
4037	0	12602	33524	
4038	0	12608	33785	
4039	0	12612	33260	
4040	0	12609	33277	
4041	0	12606	33384	
4042	0	12609	33440	
4043	0	12616	33532	
4044	0	12617	33372	
4045	0	12603	33341	
4046	0	12608	33251	
4047	0	12618	33380	
4048	0	12617	33263	
4049	0	12612	33062	
4050	0	12614	33148	
4051	0	12618	32964	
4052	0	12624	32529	
4053	0	12612	32475	
4054	0	12612	32263	
4055	0	12624	32391	
4056	0	12621	32492	
4057	0	12616	32386	
4058	0	12620	32089	
4059	0	12628	32083	
4060	0	12624	31886	
4061	0	12616	31598	
4062	0	12621	31988	
4063	0	12624	32110	
4064	0	12624	32201	
4065	0	12616	32263	
4066	0	12622	32616	
4067	0	12620	32983	
4068	0	12620	33276	
4069	0	12616	33346	
4070	0	12617	33582	
4071	0	12630	33456	
4072	0	12625	33392	
4073	0	12616	33464	
4074	0	12621	33543	
4075	0	12628	33616	
4076	0	12621	33492	
4077	0	12614	33263	
4078	0	12618	33352	
4079	0	12628	33369	
4080	0	12628	33294	
4081	0	12616	33088	
4082	0	12618	32751	
4083	0	12630	31828	
4084	0	12632	31438	
4085	0	12626	29241	
4086	0	12632	28572	
4087	0	12642	26812	
4088	0	12644	25890	
4089	0	12640	26511	
4090	0	12644	27716	
4091	0	12638	30898	
4092	0	12632	34567	
4093	0	12624	36359	
4094	0	12624	36432	
4095	0	12634	35992	
4096	0	12634	34516	
4097	0	12621	33709	
4098	0	12630	33951	
4099	0	12634	33927	
4100	0	12638	33646	
4101	0	12624	33492	
4102	0	12630	33586	
4103	0	12636	33637	
4104	0	12634	33565	
4105	0	12625	33340	
4106	0	12630	33336	
4107	0	12636	33273	
4108	0	12632	32988	
4109	0	12626	32849	
4110	0	12634	32923	
4111	0	12638	32845	
4112	0	12636	32792	
4113	0	12630	32681	
4114	0	12637	32775	
4115	0	12637	32869	
4116	0	12638	32766	
4117	0	12632	32609	
4118	0	12640	32594	
4119	0	12642	32404	
4120	0	12641	32308	
4121	0	12634	32173	
4122	0	12640	32246	
4123	0	12642	31956	
4124	0	12642	31964	
4125	0	12636	31676	
4126	0	12638	31606	
4127	0	12644	31356	
4128	0	12642	31158	
4129	0	12636	30974	
4130	0	12644	30930	
4131	0	12648	30625	
4132	0	12642	30585	
4133	0	12640	30164	
4134	0	12644	30044	
4135	0	12650	29852	
4136	0	12644	29768	
4137	0	12636	29652	
4138	0	12647	29743	
4139	0	12648	29813	
4140	0	12648	30001	
4141	0	12638	30096	
4142	0	12644	30441	
4143	0	12648	30934	
4144	0	12650	31377	
4145	0	12641	31972	
4146	0	12645	32570	
4147	0	12654	33100	
4148	0	12652	33576	
4149	0	12644	33899	
4150	0	12648	34376	
4151	0	12654	34708	
4152	0	12650	34658	
4153	0	12648	34612	
4154	0	12648	34804	
4155	0	12654	34876	
4156	0	12654	34921	
4157	0	12642	34864	
4158	0	12648	34735	
4159	0	12656	34838	
4160	0	12653	34430	
4161	0	12646	34132	
4162	0	12648	34473	
4163	0	12653	34521	
4164	0	12652	34485	
4165	0	12642	34168	
4166	0	12646	34143	
4167	0	12652	34040	
4168	0	12648	33900	
4169	0	12641	33596	
4170	0	12645	33760	
4171	0	12654	33720	
4172	0	12646	33738	
4173	0	12635	33506	
4174	0	12642	33551	
4175	0	12648	33708	
4176	0	12648	33400	
4177	0	12638	33287	
4178	0	12644	33348	
4179	0	12649	33406	
4180	0	12644	33415	
4181	0	12641	33361	
4182	0	12644	33463	
4183	0	12649	33642	
4184	0	12646	33516	
4185	0	12641	33308	
4186	0	12645	33490	
4187	0	12656	33573	
4188	0	12645	33431	
4189	0	12644	33258	
4190	0	12645	33438	
4191	0	12654	33494	
4192	0	12644	33405	
4193	0	12638	33215	
4194	0	12644	33332	
4195	0	12652	33372	
4196	0	12650	33265	
4197	0	12640	33143	
4198	0	12648	33165	
4199	0	12656	33177	
4200	0	12652	33061	
4201	0	12645	32892	
4202	0	12654	32853	
4203	0	12660	32766	
4204	0	12660	32853	
4205	0	12652	32416	
4206	0	12658	32438	
4207	0	12664	32444	
4208	0	12664	32408	
4209	0	12652	31800	
4210	0	12663	31772	
4211	0	12668	31662	
4212	0	12664	31678	
4213	0	12656	31770	
4214	0	12661	32111	
4215	0	12668	32428	
4216	0	12665	32464	
4217	0	12660	32519	
4218	0	12666	33031	
4219	0	12672	33287	
4220	0	12666	33543	
4221	0	12660	33420	
4222	0	12664	33508	
4223	0	12672	33336	
4224	0	12668	33596	
4225	0	12658	33543	
4226	0	12664	33618	
4227	0	12672	33617	
4228	0	12671	33368	
4229	0	12661	33436	
4230	0	12668	33569	
4231	0	12678	33424	
4232	0	12670	33266	
4233	0	12666	32860	
4234	0	12673	32234	
4235	0	12678	31871	
4236	0	12676	30181	
4237	0	12672	28624	
4238	0	12680	27366	
4239	0	12694	25554	
4240	0	12688	25676	
4241	0	12682	27680	
4242	0	12680	29292	
4243	0	12678	32970	
4244	0	12672	35940	
4245	0	12668	36559	
4246	0	12672	35680	
4247	0	12677	34360	
4248	0	12677	33872	
4249	0	12668	33976	
4250	0	12674	34148	
4251	0	12677	34101	
4252	0	12672	33892	
4253	0	12668	33685	
4254	0	12670	33576	
4255	0	12680	33595	
4256	0	12670	33431	
4257	0	12664	33248	
4258	0	12672	33413	
4259	0	12680	33434	
4260	0	12672	33253	
4261	0	12668	33024	
4262	0	12676	32844	
4263	0	12680	32888	
4264	0	12670	32876	
4265	0	12666	32764	
4266	0	12672	32900	
4267	0	12682	32773	
4268	0	12676	32775	
4269	0	12668	32538	
4270	0	12674	32330	
4271	0	12678	32434	
4272	0	12672	32257	
4273	0	12670	32238	
4274	0	12680	32153	
4275	0	12680	31977	
4276	0	12676	31736	
4277	0	12673	31658	
4278	0	12674	31641	
4279	0	12680	31379	
4280	0	12675	31111	
4281	0	12672	30878	
4282	0	12680	30744	
4283	0	12686	30512	
4284	0	12676	30277	
4285	0	12672	30029	
4286	0	12680	29844	
4287	0	12684	29860	
4288	0	12678	29812	
4289	0	12674	29834	
4290	0	12680	29831	
4291	0	12685	29860	
4292	0	12680	30078	
4293	0	12672	30320	
4294	0	12682	30804	
4295	0	12684	31308	
4296	0	12677	31798	
4297	0	12676	32356	
4298	0	12680	32980	
4299	0	12688	33397	
4300	0	12680	33820	
4301	0	12676	34113	
4302	0	12681	34549	
4303	0	12688	34598	
4304	0	12680	34717	
4305	0	12676	34617	
4306	0	12682	34780	
4307	0	12686	34823	
4308	0	12680	34663	
4309	0	12675	34748	
4310	0	12683	34305	
4311	0	12688	34192	
4312	0	12680	34356	
4313	0	12680	34473	
4314	0	12684	34489	
4315	0	12688	34328	
4316	0	12680	34177	
4317	0	12676	34135	
4318	0	12685	34025	
4319	0	12688	33894	
4320	0	12685	33862	
4321	0	12677	33744	
4322	0	12680	33692	
4323	0	12688	33749	
4324	0	12682	33698	
4325	0	12680	33617	
4326	0	12685	33566	
4327	0	12688	33440	
4328	0	12686	33254	
4329	0	12684	33413	
4330	0	12690	33412	
4331	0	12690	33444	
4332	0	12684	33432	
4333	0	12680	33324	
4334	0	12688	33334	
4335	0	12692	33404	
4336	0	12685	33402	
4337	0	12684	33511	
4338	0	12688	33407	
4339	0	12696	33360	
4340	0	12684	33188	
4341	0	12680	33257	
4342	0	12688	33344	
4343	0	12693	33342	
4344	0	12688	33173	
4345	0	12684	33256	
4346	0	12692	33316	
4347	0	12694	33324	
4348	0	12687	33231	
4349	0	12680	33269	
4350	0	12690	33224	
4351	0	12692	33304	
4352	0	12688	33286	
4353	0	12684	33180	
4354	0	12688	32980	
4355	0	12696	32852	
4356	0	12688	32815	
4357	0	12688	32825	
4358	0	12689	32880	
4359	0	12696	32748	
4360	0	12692	32794	
4361	0	12686	32676	
4362	0	12697	32335	
4363	0	12696	32305	
4364	0	12696	32356	
4365	0	12688	32204	
4366	0	12700	31932	
4367	0	12697	31879	
4368	0	12696	31489	
4369	0	12696	31377	
4370	0	12693	31555	
4371	0	12700	31864	
4372	0	12692	32108	
4373	0	12688	32189	
4374	0	12696	32530	
4375	0	12698	32936	
4376	0	12693	33264	
4377	0	12690	33354	
4378	0	12694	33348	
4379	0	12696	33175	
4380	0	12696	33412	
4381	0	12689	33614	
4382	0	12700	33433	
4383	0	12700	33452	
4384	0	12691	33508	
4385	0	12694	33420	
4386	0	12696	33311	
4387	0	12701	33373	
4388	0	12694	33321	
4389	0	12692	33414	
4390	0	12700	33377	
4391	0	12704	32876	
4392	0	12696	31908	
4393	0	12696	31495	
4394	0	12704	29644	
4395	0	12709	28518	
4396	0	12709	27101	
4397	0	12708	25345	
4398	0	12718	25509	
4399	0	12720	27357	
4400	0	12709	29396	
4401	0	12697	33224	
4402	0	12704	36302	
4403	0	12706	36743	
4404	0	12700	35572	
4405	0	12696	34268	
4406	0	12704	33830	
4407	0	12708	33843	
4408	0	12705	33744	
4409	0	12700	33799	
4410	0	12702	33687	
4411	0	12709	33734	
4412	0	12702	33692	
4413	0	12702	33710	
4414	0	12706	33557	
4415	0	12709	33473	
4416	0	12704	33273	
4417	0	12704	33242	
4418	0	12704	33232	
4419	0	12712	33100	
4420	0	12702	33096	
4421	0	12700	33026	
4422	0	12704	33071	
4423	0	12712	32892	
4424	0	12708	32687	
4425	0	12700	32722	
4426	0	12710	32747	
4427	0	12712	32401	
4428	0	12704	32350	
4429	0	12704	32452	
4430	0	12713	32341	
4431	0	12716	32345	
4432	0	12708	32135	
4433	0	12708	31984	
4434	0	12712	31720	
4435	0	12720	31572	
4436	0	12712	31316	
4437	0	12708	31232	
4438	0	12713	31196	
4439	0	12716	31088	
4440	0	12711	30748	
4441	0	12709	30528	
4442	0	12716	30307	
4443	0	12716	30242	
4444	0	12712	29976	
4445	0	12712	29748	
4446	0	12717	29848	
4447	0	12720	29900	
4448	0	12714	29916	
4449	0	12712	29892	
4450	0	12720	30155	
4451	0	12721	30271	
4452	0	12714	30555	
4453	0	12716	31128	
4454	0	12716	31751	
4455	0	12720	32292	
4456	0	12724	32699	
4457	0	12716	33312	
4458	0	12724	33916	
4459	0	12724	34278	
4460	0	12716	34596	
4461	0	12720	34801	
4462	0	12724	34850	
4463	0	12726	34804	
4464	0	12718	34721	
4465	0	12721	34764	
4466	0	12724	34785	
4467	0	12728	34628	
4468	0	12720	34494	
4469	0	12720	34478	
4470	0	12728	34394	
4471	0	12733	34272	
4472	0	12724	34103	
4473	0	12724	34271	
4474	0	12730	34190	
4475	0	12728	34078	
4476	0	12727	33840	
4477	0	12728	33817	
4478	0	12732	33862	
4479	0	12736	33669	
4480	0	12724	33687	
4481	0	12726	33656	
4482	0	12732	33794	
4483	0	12736	33712	
4484	0	12728	33488	
4485	0	12724	33464	
4486	0	12733	33404	
4487	0	12738	33116	
4488	0	12728	33257	
4489	0	12728	33614	
4490	0	12736	33510	
4491	0	12737	33304	
4492	0	12732	33352	
4493	0	12729	33496	
4494	0	12741	33556	
4495	0	12742	33537	
4496	0	12732	33388	
4497	0	12732	33485	
4498	0	12741	33511	
4499	0	12740	33364	
4500	0	12736	33375	
4501	0	12734	33351	
4502	0	12744	33372	
4503	0	12744	33244	
4504	0	12738	33396	
4505	0	12738	33287	
4506	0	12744	33248	
4507	0	12744	33224	
4508	0	12738	33180	
4509	0	12736	33183	
4510	0	12745	33159	
4511	0	12748	33265	
4512	0	12737	33132	
4513	0	12741	32986	
4514	0	12746	33051	
4515	0	12750	33152	
4516	0	12741	32892	
4517	0	12744	32988	
4518	0	12749	33090	
4519	0	12752	33110	
4520	0	12742	33006	
4521	0	12745	33031	
4522	0	12750	33041	
4523	0	12752	32890	
4524	0	12746	32656	
4525	0	12744	32922	
4526	0	12752	32876	
4527	0	12756	32638	
4528	0	12745	32484	
4529	0	12748	32550	
4530	0	12758	32518	
4531	0	12757	32182	
4532	0	12749	32007	
4533	0	12752	32150	
4534	0	12758	32071	
4535	0	12760	31832	
4536	0	12756	31553	
4537	0	12754	31356	
4538	0	12760	31350	
4539	0	12761	31601	
4540	0	12752	31740	
4541	0	12756	32124	
4542	0	12760	32248	
4543	0	12762	32426	
4544	0	12755	32791	
4545	0	12752	33157	
4546	0	12758	33425	
4547	0	12764	33424	
4548	0	12754	33377	
4549	0	12756	33414	
4550	0	12757	33562	
4551	0	12764	33517	
4552	0	12753	33442	
4553	0	12757	33484	
4554	0	12764	33418	
4555	0	12764	33376	
4556	0	12760	33322	
4557	0	12758	33208	
4558	0	12764	33340	
4559	0	12769	33209	
4560	0	12758	32573	
4561	0	12759	31527	
4562	0	12765	31098	
4563	0	12772	29024	
4564	0	12768	28360	
4565	0	12776	27161	
4566	0	12786	25726	
4567	0	12786	26358	
4568	0	12778	27716	
4569	0	12769	30302	
4570	0	12774	33936	
4571	0	12772	36349	
4572	0	12765	36520	
4573	0	12768	35607	
4574	0	12774	34375	
4575	0	12774	33670	
4576	0	12764	33543	
4577	0	12769	33725	
4578	0	12776	33780	
4579	0	12774	33445	
4580	0	12768	33404	
4581	0	12766	33721	
4582	0	12776	33523	
4583	0	12776	33524	
4584	0	12768	33232	
4585	0	12766	33215	
4586	0	12772	33202	
4587	0	12776	33031	
4588	0	12768	32980	
4589	0	12770	32918	
4590	0	12777	32943	
4591	0	12776	32748	
4592	0	12767	32556	
4593	0	12774	32756	
4594	0	12780	32735	
4595	0	12784	32655	
4596	0	12772	32301	
4597	0	12772	32289	
4598	0	12778	32154	
4599	0	12780	32200	
4600	0	12772	32013	
4601	0	12772	32146	
4602	0	12780	32152	
4603	0	12781	31877	
4604	0	12776	31596	
4605	0	12774	31452	
4606	0	12780	31309	
4607	0	12781	31107	
4608	0	12776	30662	
4609	0	12778	30554	
4610	0	12784	30409	
4611	0	12782	30184	
4612	0	12774	29834	
4613	0	12780	29916	
4614	0	12788	29756	
4615	0	12784	29700	
4616	0	12776	29552	
4617	0	12778	29674	
4618	0	12785	29958	
4619	0	12784	29996	
4620	0	12776	30300	
4621	0	12782	30903	
4622	0	12784	31300	
4623	0	12788	31876	
4624	0	12774	32313	
4625	0	12776	32958	
4626	0	12789	33467	
4627	0	12789	33847	
4628	0	12780	34217	
4629	0	12784	34554	
4630	0	12784	34730	
4631	0	12787	34875	
4632	0	12778	34732	
4633	0	12781	34817	
4634	0	12788	34714	
4635	0	12788	34705	
4636	0	12784	34680	
4637	0	12784	34868	
4638	0	12792	34774	
4639	0	12788	34720	
4640	0	12785	34481	
4641	0	12784	34518	
4642	0	12796	34457	
4643	0	12790	34310	
4644	0	12784	33972	
4645	0	12786	33926	
4646	0	12793	34022	
4647	0	12790	33927	
4648	0	12788	33709	
4649	0	12788	33754	
4650	0	12798	33828	
4651	0	12793	33887	
4652	0	12785	33626	
4653	0	12788	33573	
4654	0	12794	33645	
4655	0	12792	33660	
4656	0	12786	33514	
4657	0	12792	33600	
4658	0	12794	33748	
4659	0	12796	33452	
4660	0	12788	33493	
4661	0	12790	33458	
4662	0	12794	33448	
4663	0	12796	33452	
4664	0	12788	33376	
4665	0	12792	33503	
4666	0	12798	33575	
4667	0	12800	33604	
4668	0	12790	33380	
4669	0	12794	33508	
4670	0	12800	33532	
4671	0	12796	33508	
4672	0	12788	33336	
4673	0	12792	33412	
4674	0	12800	33362	
4675	0	12796	33116	
4676	0	12788	33031	
4677	0	12792	33334	
4678	0	12801	33333	
4679	0	12796	33061	
4680	0	12789	33042	
4681	0	12796	33287	
4682	0	12798	33052	
4683	0	12796	33144	
4684	0	12792	32999	
4685	0	12794	33240	
4686	0	12802	33161	
4687	0	12800	33029	
4688	0	12792	33111	
4689	0	12792	33269	
4690	0	12802	33192	
4691	0	12804	33084	
4692	0	12791	32748	
4693	0	12796	32885	
4694	0	12802	32932	
4695	0	12804	32899	
4696	0	12796	32853	
4697	0	12798	32940	
4698	0	12805	32904	
4699	0	12802	32682	
4700	0	12796	32600	
4701	0	12796	32628	
4702	0	12804	32726	
4703	0	12800	32695	
4704	0	12800	32740	
4705	0	12798	32848	
4706	0	12806	32724	
4707	0	12808	32652	
4708	0	12796	32580	
4709	0	12802	32440	
4710	0	12808	32420	
4711	0	12808	32288	
4712	0	12796	32292	
4713	0	12800	32134	
4714	0	12808	31922	
4715	0	12804	31932	
4716	0	12798	31727	
4717	0	12802	31740	
4718	0	12808	31432	
4719	0	12807	31432	
4720	0	12802	31460	
4721	0	12804	31663	
4722	0	12808	32125	
4723	0	12804	32237	
4724	0	12798	32558	
4725	0	12804	32810	
4726	0	12810	33066	
4727	0	12804	33218	
4728	0	12798	33286	
4729	0	12801	33320	
4730	0	12804	33188	
4731	0	12806	33352	
4732	0	12796	33284	
4733	0	12802	33233	
4734	0	12806	33193	
4735	0	12804	33262	
4736	0	12797	33150	
4737	0	12804	33240	
4738	0	12808	33332	
4739	0	12806	33190	
4740	0	12797	33132	
4741	0	12807	32431	
4742	0	12808	31652	
4743	0	12808	30900	
4744	0	12806	28183	
4745	0	12813	27418	
4746	0	12824	25526	
4747	0	12824	24608	
4748	0	12817	26152	
4749	0	12818	27205	
4750	0	12816	30872	
4751	0	12804	34688	
4752	0	12804	36422	
4753	0	12807	36532	
4754	0	12810	35494	
4755	0	12808	34183	
4756	0	12802	33728	
4757	0	12806	33971	
4758	0	12812	33758	
4759	0	12812	33746	
4760	0	12801	33624	
4761	0	12804	33468	
4762	0	12808	33552	
4763	0	12808	33338	
4764	0	12800	33184	
4765	0	12804	32994	
4766	0	12811	33210	
4767	0	12807	32988	
4768	0	12798	32992	
4769	0	12808	32931	
4770	0	12813	33017	
4771	0	12808	32940	
4772	0	12800	32633	
4773	0	12808	32812	
4774	0	12816	32595	
4775	0	12809	32750	
4776	0	12800	32598	
4777	0	12807	32656	
4778	0	12814	32437	
4779	0	12806	32340	
4780	0	12800	32048	
4781	0	12805	32249	
4782	0	12813	32073	
4783	0	12812	31884	
4784	0	12801	31686	
4785	0	12816	31596	
4786	0	12816	31466	
4787	0	12814	31308	
4788	0	12802	31010	
4789	0	12809	31137	
4790	0	12817	30812	
4791	0	12812	30506	
4792	0	12806	30108	
4793	0	12812	30136	
4794	0	12820	30013	
4795	0	12812	29952	
4796	0	12812	29845	
4797	0	12808	29872	
4798	0	12814	30071	
4799	0	12816	30076	
4800	0	12809	30159	
4801	0	12812	30268	
4802	0	12820	30712	
4803	0	12812	31302	
4804	0	12809	31844	
4805	0	12814	32251	
4806	0	12818	32966	
4807	0	12818	33476	
4808	0	12810	33724	
4809	0	12812	34276	
4810	0	12820	34643	
4811	0	12814	34692	
4812	0	12806	34515	
4813	0	12812	34689	
4814	0	12817	34720	
4815	0	12816	34920	
4816	0	12808	34772	
4817	0	12812	34619	
4818	0	12820	34429	
4819	0	12816	34388	
4820	0	12809	34328	
4821	0	12818	34402	
4822	0	12824	34366	
4823	0	12818	34108	
4824	0	12810	33858	
4825	0	12820	33892	
4826	0	12824	34004	
4827	0	12818	33894	
4828	0	12812	33725	
4829	0	12816	33436	
4830	0	12824	33583	
4831	0	12816	33704	
4832	0	12812	33692	
4833	0	12820	33708	
4834	0	12825	33737	
4835	0	12822	33583	
4836	0	12812	33433	
4837	0	12820	33626	
4838	0	12821	33599	
4839	0	12822	33464	
4840	0	12818	33405	
4841	0	12820	33505	
4842	0	12828	33492	
4843	0	12824	33540	
4844	0	12816	33348	
4845	0	12820	33303	
4846	0	12828	33678	
4847	0	12818	33423	
4848	0	12816	33413	
4849	0	12824	33543	
4850	0	12828	33439	
4851	0	12824	33369	
4852	0	12817	33256	
4853	0	12824	33204	
4854	0	12824	33374	
4855	0	12820	33242	
4856	0	12816	33191	
4857	0	12824	33378	
4858	0	12827	33227	
4859	0	12824	33097	
4860	0	12816	33126	
4861	0	12822	33164	
4862	0	12830	33136	
4863	0	12822	33187	
4864	0	12816	32940	
4865	0	12824	32996	
4866	0	12828	33116	
4867	0	12824	33122	
4868	0	12818	33216	
4869	0	12830	33084	
4870	0	12832	32917	
4871	0	12824	32952	
4872	0	12820	32965	
4873	0	12824	32900	
4874	0	12828	33118	
4875	0	12831	32977	
4876	0	12817	32738	
4877	0	12828	32644	
4878	0	12829	32832	
4879	0	12828	32657	
4880	0	12820	32639	
4881	0	12826	32406	
4882	0	12830	32468	
4883	0	12826	32263	
4884	0	12823	32119	
4885	0	12830	32096	
4886	0	12832	32001	
4887	0	12828	31732	
4888	0	12822	31761	
4889	0	12825	31646	
4890	0	12832	31734	
4891	0	12826	31644	
4892	0	12824	31608	
4893	0	12828	31969	
4894	0	12832	32340	
4895	0	12826	32486	
4896	0	12821	32735	
4897	0	12828	33044	
4898	0	12826	33196	
4899	0	12826	33399	
4900	0	12824	33332	
4901	0	12829	33415	
4902	0	12832	33204	
4903	0	12828	33218	
4904	0	12821	33340	
4905	0	12825	33287	
4906	0	12836	33277	
4907	0	12826	33120	
4908	0	12822	33175	
4909	0	12826	33110	
4910	0	12833	33030	
4911	0	12828	32596	
4912	0	12822	31780	
4913	0	12828	31700	
4914	0	12838	29669	
4915	0	12840	28208	
4916	0	12836	26996	
4917	0	12844	25710	
4918	0	12854	25556	
4919	0	12849	27200	
4920	0	12833	28916	
4921	0	12832	33042	
4922	0	12836	36037	
4923	0	12831	36284	
4924	0	12825	36007	
4925	0	12834	34828	
4926	0	12832	33731	
4927	0	12832	33604	
4928	0	12826	33728	
4929	0	12830	33840	
4930	0	12836	33780	
4931	0	12828	33607	
4932	0	12828	33504	
4933	0	12833	33568	
4934	0	12837	33390	
4935	0	12832	33199	
4936	0	12828	33141	
4937	0	12834	33145	
4938	0	12834	33048	
4939	0	12834	32976	
4940	0	12825	33031	
4941	0	12834	33016	
4942	0	12840	32968	
4943	0	12830	32912	
4944	0	12822	32872	
4945	0	12832	32685	
4946	0	12836	32570	
4947	0	12833	32509	
4948	0	12826	32486	
4949	0	12834	32396	
4950	0	12840	32358	
4951	0	12832	32100	
4952	0	12828	31910	
4953	0	12836	32076	
4954	0	12839	31904	
4955	0	12830	31751	
4956	0	12828	31645	
4957	0	12838	31429	
4958	0	12840	31216	
4959	0	12834	31026	
4960	0	12833	30813	
4961	0	12838	30518	
4962	0	12840	30306	
4963	0	12836	30125	
4964	0	12832	30052	
4965	0	12838	29907	
4966	0	12842	29926	
4967	0	12834	29818	
4968	0	12832	29872	
4969	0	12841	29946	
4970	0	12842	30053	
4971	0	12837	30184	
4972	0	12832	30484	
4973	0	12837	31164	
4974	0	12844	31557	
4975	0	12837	32204	
4976	0	12832	32853	
4977	0	12841	33350	
4978	0	12842	33965	
4979	0	12832	34311	
4980	0	12836	34557	
4981	0	12840	34642	
4982	0	12848	34836	
4983	0	12840	34933	
4984	0	12834	34908	
4985	0	12842	34906	
4986	0	12844	34839	
4987	0	12840	34682	
4988	0	12836	34561	
4989	0	12844	34348	
4990	0	12847	34365	
4991	0	12842	34300	
4992	0	12836	34425	
4993	0	12842	34081	
4994	0	12846	34247	
4995	0	12838	33956	
4996	0	12840	34050	
4997	0	12848	33988	
4998	0	12848	33942	
4999	0	12842	33834	
5000	0	12842	33732	
5001	0	12841	33844	
5002	0	12850	33632	
5003	0	12844	33587	
5004	0	12841	33588	
5005	0	12848	33381	
5006	0	12852	33503	
5007	0	12845	33364	
5008	0	12838	33372	
5009	0	12846	33468	
5010	0	12848	33624	
5011	0	12844	33415	
5012	0	12840	33369	
5013	0	12845	33303	
5014	0	12850	33350	
5015	0	12844	33449	
5016	0	12840	33456	
5017	0	12846	33616	
5018	0	12852	33424	
5019	0	12840	33276	
5020	0	12840	33365	
5021	0	12845	33314	
5022	0	12849	33346	
5023	0	12846	33348	
5024	0	12840	33383	
5025	0	12852	33314	
5026	0	12850	33205	
5027	0	12846	33098	
5028	0	12844	33330	
5029	0	12848	33319	
5030	0	12853	33360	
5031	0	12840	33238	
5032	0	12844	33228	
5033	0	12852	33216	
5034	0	12848	33088	
5035	0	12845	33031	
5036	0	12842	33079	
5037	0	12846	32996	
5038	0	12849	32915	
5039	0	12840	32860	
5040	0	12840	32924	
5041	0	12849	32932	
5042	0	12853	32871	
5043	0	12844	32772	
5044	0	12842	32840	
5045	0	12850	32972	
5046	0	12848	32879	
5047	0	12842	32916	
5048	0	12844	33068	
5049	0	12852	32911	
5050	0	12852	32903	
5051	0	12846	32814	
5052	0	12844	32672	
5053	0	12848	32766	
5054	0	12852	32792	
5055	0	12848	32608	
5056	0	12850	32708	
5057	0	12852	32756	
5058	0	12852	32852	
5059	0	12842	32696	
5060	0	12842	32673	
5061	0	12848	32519	
5062	0	12852	32733	
5063	0	12847	32835	
5064	0	12842	32804	
5065	0	12845	32706	
5066	0	12852	32668	
5067	0	12844	32630	
5068	0	12841	32736	
5069	0	12848	32752	
5070	0	12853	32530	
5071	0	12848	32220	
5072	0	12840	32169	
5073	0	12848	32161	
5074	0	12854	32135	
5075	0	12844	31980	
5076	0	12842	31961	
5077	0	12852	31978	
5078	0	12852	31610	
5079	0	12848	31264	
5080	0	12844	31270	
5081	0	12852	31402	
5082	0	12852	31623	
5083	0	12846	31828	
5084	0	12844	31912	
5085	0	12848	32107	
5086	0	12850	32519	
5087	0	12842	32852	
5088	0	12844	33158	
5089	0	12842	33285	
5090	0	12848	33196	
5091	0	12840	33024	
5092	0	12833	33148	
5093	0	12842	33312	
5094	0	12844	33324	
5095	0	12836	33299	
5096	0	12836	33287	
5097	0	12844	33415	
5098	0	12842	33228	
5099	0	12835	33260	
5100	0	12834	33168	
5101	0	12840	32958	
5102	0	12844	32224	
5103	0	12836	31372	
5104	0	12836	30773	
5105	0	12846	28916	
5106	0	12846	28314	
5107	0	12848	26186	
5108	0	12848	25305	
5109	0	12861	27288	
5110	0	12858	28423	
5111	0	12841	31468	
5112	0	12837	34705	
5113	0	12842	36423	
5114	0	12844	36140	
5115	0	12840	34897	
5116	0	12834	33884	
5117	0	12840	33727	
5118	0	12839	33844	
5119	0	12832	33700	
5120	0	12834	33712	
5121	0	12840	33788	
5122	0	12842	33692	
5123	0	12834	33556	
5124	0	12834	33536	
5125	0	12844	33543	
5126	0	12844	33429	
5127	0	12840	33383	
5128	0	12842	33396	
5129	0	12849	33204	
5130	0	12852	33219	
5131	0	12840	33020	
5132	0	12848	32940	
5133	0	12852	32978	
5134	0	12856	32758	
5135	0	12848	32640	
5136	0	12844	32615	
5137	0	12853	32746	
5138	0	12856	32564	
5139	0	12848	32340	
5140	0	12848	32415	
5141	0	12854	32375	
5142	0	12860	32256	
5143	0	12849	31961	
5144	0	12845	31849	
5145	0	12854	31741	
5146	0	12856	31577	
5147	0	12848	31388	
5148	0	12848	31346	
5149	0	12856	31239	
5150	0	12858	30949	
5151	0	12850	30544	
5152	0	12852	30548	
5153	0	12856	30412	
5154	0	12860	30120	
5155	0	12852	29877	
5156	0	12856	29856	
5157	0	12856	29820	
5158	0	12861	29721	
5159	0	12850	29734	
5160	0	12848	29856	
5161	0	12856	29969	
5162	0	12859	30274	
5163	0	12852	30724	
5164	0	12856	31324	
5165	0	12856	31694	
5166	0	12860	32383	
5167	0	12848	32798	
5168	0	12856	33368	
5169	0	12858	33924	
5170	0	12858	34336	
5171	0	12850	34527	
5172	0	12852	34841	
5173	0	12853	35044	
5174	0	12852	35079	
5175	0	12849	34704	
5176	0	12856	34960	
5177	0	12852	34911	
5178	0	12858	34971	
5179	0	12846	34676	
5180	0	12852	34668	
5181	0	12858	34455	
5182	0	12856	34360	
5183	0	12850	34372	
5184	0	12852	34300	
5185	0	12861	34200	
5186	0	12856	34110	
5187	0	12848	34025	
5188	0	12852	34086	
5189	0	12858	33974	
5190	0	12854	34005	
5191	0	12850	33757	
5192	0	12846	33754	
5193	0	12854	33664	
5194	0	12853	33760	
5195	0	12852	33620	
5196	0	12850	33492	
5197	0	12854	33528	
5198	0	12857	33484	
5199	0	12846	33534	
5200	0	12852	33529	
5201	0	12856	33506	
5202	0	12856	33512	
5203	0	12848	33477	
5204	0	12849	33476	
5205	0	12856	33479	
5206	0	12857	33404	
5207	0	12847	33408	
5208	0	12854	33647	
5209	0	12856	33535	
5210	0	12858	33537	
5211	0	12852	33222	
5212	0	12848	33490	
5213	0	12856	33515	
5214	0	12861	33404	
5215	0	12850	33268	
5216	0	12851	33336	
5217	0	12856	33138	
5218	0	12854	33404	
5219	0	12850	33125	
5220	0	12848	33357	
5221	0	12853	33255	
5222	0	12856	33122	
5223	0	12848	32960	
5224	0	12849	33143	
5225	0	12856	33192	
5226	0	12852	32996	
5227	0	12848	32901	
5228	0	12848	33068	
5229	0	12856	33164	
5230	0	12854	33100	
5231	0	12848	32900	
5232	0	12850	32978	
5233	0	12852	33082	
5234	0	12856	33009	
5235	0	12848	32932	
5236	0	12848	32889	
5237	0	12856	32893	
5238	0	12858	32854	
5239	0	12845	32774	
5240	0	12849	32916	
5241	0	12854	32881	
5242	0	12858	32768	
5243	0	12845	32807	
5244	0	12848	32761	
5245	0	12856	32942	
5246	0	12856	32795	
5247	0	12848	32675	
5248	0	12850	32868	
5249	0	12854	32784	
5250	0	12854	32676	
5251	0	12844	32618	
5252	0	12849	32844	
5253	0	12852	32804	
5254	0	12856	32662	
5255	0	12844	32466	
5256	0	12850	32714	
5257	0	12856	32677	
5258	0	12855	32589	
5259	0	12841	32561	
5260	0	12848	32612	
5261	0	12852	32391	
5262	0	12852	32201	
5263	0	12845	31896	
5264	0	12848	32111	
5265	0	12852	32229	
5266	0	12854	32183	
5267	0	12845	31676	
5268	0	12852	31762	
5269	0	12858	31420	
5270	0	12852	31407	
5271	0	12845	31222	
5272	0	12846	31286	
5273	0	12856	31736	
5274	0	12852	31985	
5275	0	12844	31980	
5276	0	12846	32310	
5277	0	12852	32640	
5278	0	12850	32941	
5279	0	12842	33005	
5280	0	12844	33301	
5281	0	12850	33448	
5282	0	12849	33244	
5283	0	12840	33137	
5284	0	12844	33268	
5285	0	12848	33368	
5286	0	12846	33351	
5287	0	12842	33039	
5288	0	12848	33081	
5289	0	12849	33094	
5290	0	12852	33118	
5291	0	12840	32637	
5292	0	12844	31736	
5293	0	12850	31336	
5294	0	12850	29661	
5295	0	12845	28618	
5296	0	12853	27466	
5297	0	12864	25800	
5298	0	12865	25828	
5299	0	12854	27648	
5300	0	12852	29447	
5301	0	12852	32988	
5302	0	12844	36068	
5303	0	12844	36400	
5304	0	12842	35715	
5305	0	12848	34417	
5306	0	12848	33903	
5307	0	12836	33862	
5308	0	12842	33844	
5309	0	12846	33799	
5310	0	12844	33739	
5311	0	12840	33600	
5312	0	12840	33633	
5313	0	12847	33617	
5314	0	12848	33634	
5315	0	12836	33207	
5316	0	12840	33296	
5317	0	12846	33152	
5318	0	12844	33108	
5319	0	12833	32974	
5320	0	12841	33099	
5321	0	12846	33080	
5322	0	12841	32786	
5323	0	12841	32767	
5324	0	12838	32895	
5325	0	12844	32847	
5326	0	12844	32662	
5327	0	12837	32393	
5328	0	12841	32368	
5329	0	12845	32417	
5330	0	12844	32412	
5331	0	12834	32252	
5332	0	12836	32108	
5333	0	12846	31948	
5334	0	12846	31769	
5335	0	12834	31650	
5336	0	12840	31530	
5337	0	12849	31528	
5338	0	12845	31256	
5339	0	12838	30969	
5340	0	12836	30800	
5341	0	12849	30616	
5342	0	12846	30364	
5343	0	12836	30069	
5344	0	12842	30160	
5345	0	12850	29936	
5346	0	12841	29773	
5347	0	12836	29693	
5348	0	12841	29621	
5349	0	12845	29784	
5350	0	12842	29816	
5351	0	12834	30031	
5352	0	12840	30407	
5353	0	12845	30980	
5354	0	12840	31416	
5355	0	12836	31946	
5356	0	12836	32519	
5357	0	12842	33278	
5358	0	12840	33745	
5359	0	12834	34021	
5360	0	12841	34552	
5361	0	12846	34788	
5362	0	12842	34856	
5363	0	12830	34893	
5364	0	12838	35169	
5365	0	12846	35332	
5366	0	12840	34996	
5367	0	12836	34870	
5368	0	12836	34812	
5369	0	12842	34887	
5370	0	12841	34823	
5371	0	12833	34556	
5372	0	12836	34439	
5373	0	12844	34494	
5374	0	12840	34369	
5375	0	12832	34311	
5376	0	12837	34080	
5377	0	12840	34212	
5378	0	12837	34041	
5379	0	12833	33887	
5380	0	12836	33983	
5381	0	12841	33977	
5382	0	12840	33770	
5383	0	12832	33656	
5384	0	12841	33820	
5385	0	12840	33702	
5386	0	12833	33719	
5387	0	12832	33540	
5388	0	12836	33785	
5389	0	12841	33606	
5390	0	12838	33583	
5391	0	12833	33720	
5392	0	12833	33572	
5393	0	12842	33713	
5394	0	12837	33678	
5395	0	12828	33436	
5396	0	12836	33728	
5397	0	12840	33700	
5398	0	12835	33479	
5399	0	12830	33386	
5400	0	12834	33537	
5401	0	12840	33480	
5402	0	12832	33267	
5403	0	12828	33305	
5404	0	12834	33459	
5405	0	12840	33537	
5406	0	12838	33269	
5407	0	12830	33484	
5408	0	12836	33328	
5409	0	12842	33364	
5410	0	12836	33173	
5411	0	12826	33058	
5412	0	12836	33248	
5413	0	12840	33171	
5414	0	12832	33232	
5415	0	12826	33076	
5416	0	12835	33220	
5417	0	12838	33007	
5418	0	12833	33050	
5419	0	12828	33149	
5420	0	12834	33154	
5421	0	12840	33010	
5422	0	12834	32908	
5423	0	12826	32977	
5424	0	12830	32948	
5425	0	12834	33159	
5426	0	12833	33031	
5427	0	12826	32710	
5428	0	12830	32876	
5429	0	12836	32943	
5430	0	12836	32775	
5431	0	12828	32980	
5432	0	12836	32849	
5433	0	12836	32716	
5434	0	12832	32784	
5435	0	12825	32842	
5436	0	12832	32861	
5437	0	12834	32729	
5438	0	12833	32548	
5439	0	12824	32620	
5440	0	12830	32775	
5441	0	12836	32837	
5442	0	12830	32456	
5443	0	12829	32313	
5444	0	12836	32276	
5445	0	12840	32308	
5446	0	12830	32135	
5447	0	12826	32078	
5448	0	12836	31973	
5449	0	12838	31818	
5450	0	12836	31495	
5451	0	12824	31401	
5452	0	12836	31522	
5453	0	12840	31513	
5454	0	12829	31592	
5455	0	12826	31844	
5456	0	12834	32076	
5457	0	12837	32263	
5458	0	12828	32462	
5459	0	12824	32860	
5460	0	12829	33076	
5461	0	12836	33443	
5462	0	12828	33013	
5463	0	12825	33157	
5464	0	12829	33268	
5465	0	12836	33374	
5466	0	12833	33287	
5467	0	12824	33308	
5468	0	12833	33257	
5469	0	12832	33024	
5470	0	12832	33072	
5471	0	12826	32972	
5472	0	12832	32681	
5473	0	12833	31862	
5474	0	12832	31377	
5475	0	12830	29319	
5476	0	12834	28184	
5477	0	12844	26964	
5478	0	12840	25533	
5479	0	12844	25500	
5480	0	12848	27301	
5481	0	12842	29063	
5482	0	12828	33105	
5483	0	12823	36100	
5484	0	12832	36455	
5485	0	12833	35967	
5486	0	12830	34578	
5487	0	12824	33870	
5488	0	12828	33754	
5489	0	12832	33682	
5490	0	12830	33676	
5491	0	12822	33752	
5492	0	12828	33884	
5493	0	12834	33773	
5494	0	12828	33542	
5495	0	12822	33512	
5496	0	12824	33348	
5497	0	12832	33392	
5498	0	12824	33100	
5499	0	12819	33056	
5500	0	12826	33040	
5501	0	12834	33060	
5502	0	12821	32790	
5503	0	12821	32980	
5504	0	12828	33098	
5505	0	12828	32696	
5506	0	12820	32720	
5507	0	12820	32772	
5508	0	12828	32558	
5509	0	12828	32410	
5510	0	12824	32405	
5511	0	12821	32006	
5512	0	12824	32128	
5513	0	12828	32119	
5514	0	12826	32006	
5515	0	12822	31911	
5516	0	12828	31769	
5517	0	12830	31777	
5518	0	12824	31367	
5519	0	12821	31040	
5520	0	12828	31082	
5521	0	12832	30831	
5522	0	12824	30572	
5523	0	12818	30198	
5524	0	12828	30333	
5525	0	12828	30100	
5526	0	12832	29890	
5527	0	12820	29750	
5528	0	12824	29854	
5529	0	12832	29892	
5530	0	12820	29764	
5531	0	12822	30152	
5532	0	12832	30074	
5533	0	12830	30532	
5534	0	12826	30873	
5535	0	12821	31385	
5536	0	12826	31888	
5537	0	12830	32632	
5538	0	12820	33287	
5539	0	12824	33676	
5540	0	12826	34104	
5541	0	12828	34426	
5542	0	12825	34612	
5543	0	12822	34776	
5544	0	12822	34887	
5545	0	12829	34888	
5546	0	12821	34781	
5547	0	12812	34852	
5548	0	12825	34792	
5549	0	12832	34981	
5550	0	12824	34908	
5551	0	12820	34637	
5552	0	12824	34525	
5553	0	12832	34465	
5554	0	12823	34165	
5555	0	12818	34024	
5556	0	12826	34100	
5557	0	12833	34068	
5558	0	12820	33787	
5559	0	12820	33878	
5560	0	12824	34012	
5561	0	12828	33831	
5562	0	12818	33622	
5563	0	12820	33666	
5564	0	12821	33559	
5565	0	12826	33814	
5566	0	12814	33684	
5567	0	12813	33644	
5568	0	12820	33626	
5569	0	12824	33607	
5570	0	12813	33368	
5571	0	12810	33482	
5572	0	12820	33738	
5573	0	12820	33489	
5574	0	12816	33598	
5575	0	12810	33654	
5576	0	12816	33596	
5577	0	12820	33572	
5578	0	12809	33476	
5579	0	12808	33556	
5580	0	12813	33487	
5581	0	12814	33431	
5582	0	12808	33223	
5583	0	12808	33262	
5584	0	12813	33284	
5585	0	12813	33104	
5586	0	12808	33455	
5587	0	12808	33391	
5588	0	12812	33408	
5589	0	12816	33404	
5590	0	12806	33122	
5591	0	12808	33096	
5592	0	12812	33248	
5593	0	12818	33404	
5594	0	12806	33184	
5595	0	12805	33268	
5596	0	12816	33090	
5597	0	12818	33057	
5598	0	12810	33209	
5599	0	12810	32932	
5600	0	12818	32996	
5601	0	12820	32900	
5602	0	12812	32989	
5603	0	12812	32930	
5604	0	12820	32916	
5605	0	12821	33010	
5606	0	12814	33031	
5607	0	12810	33002	
5608	0	12820	32842	
5609	0	12824	32736	
5610	0	12812	32660	
5611	0	12816	32816	
5612	0	12824	32856	
5613	0	12818	32866	
5614	0	12818	32792	
5615	0	12813	32832	
5616	0	12818	32503	
5617	0	12821	32366	
5618	0	12816	32004	
5619	0	12814	32212	
5620	0	12824	32455	
5621	0	12824	32081	
5622	0	12816	31720	
5623	0	12816	31680	
5624	0	12824	31704	
5625	0	12824	31674	
5626	0	12817	31326	
5627	0	12820	31412	
5628	0	12826	31817	
5629	0	12826	32162	
5630	0	12816	32263	
5631	0	12816	32604	
5632	0	12821	32798	
5633	0	12821	33140	
5634	0	12814	33157	
5635	0	12812	33380	
5636	0	12821	33368	
5637	0	12822	33407	
5638	0	12816	33312	
5639	0	12816	33311	
5640	0	12820	33250	
5641	0	12821	33236	
5642	0	12813	32955	
5643	0	12816	33128	
5644	0	12820	33144	
5645	0	12824	32746	
5646	0	12816	31992	
5647	0	12813	31405	
5648	0	12826	30280	
5649	0	12828	28332	
5650	0	12824	27598	
5651	0	12829	25960	
5652	0	12836	25448	
5653	0	12840	27368	
5654	0	12831	28308	
5655	0	12816	32254	
5656	0	12824	35476	
5657	0	12825	36428	
5658	0	12814	35898	
5659	0	12814	35088	
5660	0	12825	34028	
5661	0	12822	33776	
5662	0	12812	33772	
5663	0	12814	33852	
5664	0	12820	33704	
5665	0	12822	33766	
5666	0	12816	33337	
5667	0	12812	33593	
5668	0	12820	33536	
5669	0	12818	33407	
5670	0	12812	33196	
5671	0	12816	33308	
5672	0	12820	33208	
5673	0	12820	33286	
5674	0	12812	32995	
5675	0	12816	33044	
5676	0	12818	32949	
5677	0	12822	32878	
5678	0	12813	32712	
5679	0	12809	32588	
5680	0	12822	32700	
5681	0	12824	32748	
5682	0	12814	32578	
5683	0	12810	32454	
5684	0	12822	32407	
5685	0	12825	32206	
5686	0	12816	32134	
5687	0	12810	32087	
5688	0	12822	31829	
5689	0	12822	31813	
5690	0	12816	31495	
5691	0	12816	31493	
5692	0	12821	31205	
5693	0	12822	30983	
5694	0	12816	30663	
5695	0	12816	30556	
5696	0	12820	30581	
5697	0	12828	30104	
5698	0	12816	29829	
5699	0	12816	29747	
5700	0	12820	29770	
5701	0	12824	29761	
5702	0	12820	29724	
5703	0	12816	29817	
5704	0	12821	29980	
5705	0	12820	30088	
5706	0	12814	30265	
5707	0	12818	30678	
5708	0	12824	31221	
5709	0	12822	32059	
5710	0	12811	32512	
5711	0	12818	33031	
5712	0	12821	33607	
5713	0	12822	34073	
5714	0	12818	34368	
5715	0	12813	34685	
5716	0	12818	34786	
5717	0	12821	34940	
5718	0	12812	34988	
5719	0	12814	34951	
5720	0	12820	34948	
5721	0	12824	34809	
5722	0	12816	34711	
5723	0	12816	34676	
5724	0	12822	34686	
5725	0	12822	34514	
5726	0	12814	34340	
5727	0	12814	34420	
5728	0	12821	34414	
5729	0	12821	34169	
5730	0	12816	33940	
5731	0	12812	33976	
5732	0	12822	33998	
5733	0	12820	33868	
5734	0	12813	33696	
5735	0	12816	33772	
5736	0	12820	33780	
5737	0	12822	33572	
5738	0	12816	33662	
5739	0	12818	33633	
5740	0	12820	33582	
5741	0	12820	33598	
5742	0	12814	33457	
5743	0	12815	33618	
5744	0	12824	33502	
5745	0	12824	33389	
5746	0	12816	33324	
5747	0	12816	33408	
5748	0	12824	33526	
5749	0	12820	33433	
5750	0	12812	33394	
5751	0	12814	33490	
5752	0	12820	33468	
5753	0	12822	33447	
5754	0	12810	33328	
5755	0	12815	33465	
5756	0	12816	33529	
5757	0	12826	33408	
5758	0	12808	33287	
5759	0	12817	33441	
5760	0	12820	33287	
5761	0	12821	33144	
5762	0	12810	32957	
5763	0	12817	33070	
5764	0	12820	33066	
5765	0	12820	33236	
5766	0	12814	33193	
5767	0	12814	33162	
5768	0	12822	33063	
5769	0	12821	33057	
5770	0	12813	33118	
5771	0	12812	33092	
5772	0	12821	33040	
5773	0	12824	32884	
5774	0	12813	33100	
5775	0	12814	33012	
5776	0	12820	33082	
5777	0	12820	32934	
5778	0	12816	32909	
5779	0	12812	32862	
5780	0	12820	32774	
5781	0	12820	32697	
5782	0	12814	32668	
5783	0	12818	32803	
5784	0	12820	32847	
5785	0	12820	32646	
5786	0	12808	32610	
5787	0	12816	32742	
5788	0	12818	32775	
5789	0	12820	32668	
5790	0	12814	32642	
5791	0	12812	32856	
5792	0	12820	32816	
5793	0	12820	32740	
5794	0	12812	32598	
5795	0	12816	32632	
5796	0	12820	32640	
5797	0	12822	32645	
5798	0	12808	32164	
5799	0	12812	32124	
5800	0	12820	32221	
5801	0	12821	32223	
5802	0	12808	31796	
5803	0	12818	31727	
5804	0	12824	31784	
5805	0	12820	31640	
5806	0	12810	31489	
5807	0	12816	31348	
5808	0	12816	31447	
5809	0	12822	31937	
5810	0	12813	32056	
5811	0	12816	32272	
5812	0	12818	32476	
5813	0	12815	32646	
5814	0	12812	32858	
5815	0	12812	33233	
5816	0	12813	33266	
5817	0	12816	33311	
5818	0	12812	33287	
5819	0	12811	33356	
5820	0	12817	33393	
5821	0	12818	33254	
5822	0	12808	33257	
5823	0	12811	33241	
5824	0	12816	33316	
5825	0	12820	33218	
5826	0	12808	32839	
5827	0	12817	32168	
5828	0	12819	31367	
5829	0	12817	30272	
5830	0	12816	28647	
5831	0	12822	28120	
5832	0	12830	26024	
5833	0	12829	25325	
5834	0	12828	27318	
5835	0	12826	28751	
5836	0	12823	32122	
5837	0	12819	35203	
5838	0	12806	36348	
5839	0	12812	35933	
5840	0	12817	34773	
5841	0	12822	33842	
5842	0	12808	33701	
5843	0	12812	34012	
5844	0	12818	33877	
5845	0	12814	33900	
5846	0	12809	33649	
5847	0	12812	33668	
5848	0	12819	33751	
5849	0	12816	33543	
5850	0	12808	33429	
5851	0	12810	33319	
5852	0	12820	33316	
5853	0	12816	33183	
5854	0	12808	33133	
5855	0	12812	33103	
5856	0	12818	33126	
5857	0	12819	33017	
5858	0	12808	32684	
5859	0	12809	32752	
5860	0	12816	32876	
5861	0	12814	32638	
5862	0	12808	32485	
5863	0	12812	32420	
5864	0	12816	32477	
5865	0	12817	32252	
5866	0	12808	32180	
5867	0	12812	32084	
5868	0	12818	32006	
5869	0	12812	31943	
5870	0	12808	31589	
5871	0	12810	31692	
5872	0	12818	31404	
5873	0	12816	31042	
5874	0	12804	30974	
5875	0	12812	30820	
5876	0	12820	30631	
5877	0	12818	30264	
5878	0	12808	30032	
5879	0	12810	30040	
5880	0	12816	29977	
5881	0	12817	29665	
5882	0	12804	29549	
5883	0	12810	29774	
5884	0	12816	29688	
5885	0	12812	29802	
5886	0	12808	29823	
5887	0	12810	30270	
5888	0	12820	30680	
5889	0	12816	31239	
5890	0	12806	31722	
5891	0	12810	32470	
5892	0	12814	33002	
5893	0	12810	33543	
5894	0	12805	33764	
5895	0	12810	34157	
5896	0	12816	34618	
5897	0	12812	34936	
5898	0	12804	34852	
5899	0	12810	34967	
5900	0	12816	35060	
5901	0	12812	34988	
5902	0	12805	34885	
5903	0	12810	34886	
5904	0	12818	34780	
5905	0	12812	34670	
5906	0	12804	34513	
5907	0	12810	34472	
5908	0	12816	34301	
5909	0	12812	34356	
5910	0	12806	34103	
5911	0	12810	34100	
5912	0	12816	34024	
5913	0	12816	34041	
5914	0	12805	33792	
5915	0	12812	33842	
5916	0	12814	33882	
5917	0	12812	33703	
5918	0	12808	33530	
5919	0	12810	33708	
5920	0	12814	33740	
5921	0	12812	33465	
5922	0	12804	33484	
5923	0	12811	33596	
5924	0	12814	33596	
5925	0	12812	33543	
5926	0	12806	33382	
5927	0	12812	33552	
5928	0	12816	33648	
5929	0	12812	33342	
5930	0	12804	33471	
5931	0	12812	33512	
5932	0	12816	33617	
5933	0	12808	33542	
5934	0	12806	33424	
5935	0	12812	33384	
5936	0	12812	33462	
5937	0	12816	33353	
5938	0	12804	33222	
5939	0	12810	33325	
5940	0	12818	33384	
5941	0	12816	33444	
5942	0	12804	33234	
5943	0	12814	33216	
5944	0	12815	33415	
5945	0	12812	33248	
5946	0	12801	33054	
5947	0	12812	33101	
5948	0	12812	33178	
5949	0	12810	33041	
5950	0	12800	33119	
5951	0	12810	33064	
5952	0	12817	33104	
5953	0	12808	33169	
5954	0	12804	32948	
5955	0	12810	33031	
5956	0	12816	32988	
5957	0	12812	32946	
5958	0	12801	32951	
5959	0	12812	33044	
5960	0	12821	32913	
5961	0	12812	32684	
5962	0	12806	32672	
5963	0	12812	32901	
5964	0	12816	32988	
5965	0	12810	32869	
5966	0	12805	32673	
5967	0	12813	32806	
5968	0	12816	32601	
5969	0	12812	32220	
5970	0	12808	32044	
5971	0	12808	32340	
5972	0	12820	32415	
5973	0	12810	32150	
5974	0	12808	31793	
5975	0	12814	31812	
5976	0	12822	31751	
5977	0	12814	31590	
5978	0	12806	31423	
5979	0	12808	31366	
5980	0	12816	31727	
5981	0	12814	31976	
5982	0	12808	32180	
5983	0	12812	32454	
5984	0	12820	32838	
5985	0	12812	33104	
5986	0	12807	33120	
5987	0	12812	33397	
5988	0	12816	33448	
5989	0	12812	33480	
5990	0	12805	33425	
5991	0	12810	33410	
5992	0	12816	33322	
5993	0	12813	33240	
5994	0	12804	33138	
5995	0	12812	33259	
5996	0	12818	33372	
5997	0	12812	33296	
5998	0	12808	32718	
5999	0	12812	31719	
6000	0	12820	31239	
6001	0	12817	29289	
6002	0	12808	28551	
6003	0	12818	27702	
6004	0	12830	26129	
6005	0	12826	26278	
6006	0	12824	27935	
6007	0	12824	29875	
6008	0	12816	33529	
6009	0	12810	36400	
6010	0	12804	36653	
6011	0	12813	35678	
6012	0	12812	34368	
